0.081,0.073,0.074,0.073,0.07,0.068,0.066,0.074,0.081,0.075,0.068,0.067,0.069,0.066,0.06,0.065,0.073,0.066,0.062,0.064,0.067,0.063,0.061,0.06,0.059,0.064,0.062,0.059,0.063,0.063,0.062,0.06,0.059,0.061,0.061,0.06,0.061,0.06,0.06,0.061,0.058,0.059,0.061,0.062,0.059,0.056,0.057,0.06,0.06,0.059,0.059,0.06,0.061,0.061,0.059,0.059,0.059,0.058,0.06,0.061,0.061,0.06,0.059,0.06,0.061,0.061,0.061,0.062,0.062,0.061,0.061,0.062,0.062,0.061,0.061,0.061,0.062,0.062,0.062,0.062,0.062,0.062,0.062,0.063,0.062,0.062,0.062,0.062,0.062,0.063,0.062,0.061,0.062,0.062,0.063,0.063,0.063,0.063,0.063,0.063,0.063,0.063,0.063,0.063,0.063,0.063,0.064,0.063,0.063,0.063,0.063,0.063,0.063,0.063,0.064,0.064,0.063,0.062,0.063,0.063,0.063,0.063,0.063,0.063,0.063,0.063,0.063,0.063,0.063,0.063,0.063,0.063,0.063,0.063,0.063,0.063,0.064,0.064,0.063,0.063,0.064,0.064,0.064,0.064,0.064,0.064,0.065,0.065,0.065,0.065,0.065,0.066,0.066,0.066,0.067,0.067,0.068,0.069,0.069,0.07,0.071,0.072,0.073,0.074,0.075,0.076,0.077,0.079,0.08,0.081,0.083,0.084,0.086,0.088,0.089,0.091,0.092,0.093,0.094,0.095,0.097,0.097,0.098,0.099,0.1,0.1,0.101,0.101,0.101,0.101,0.102,0.102,0.102,0.102,0.103,0.103,0.103,0.103,0.104,0.104,0.104,0.104,0.104,0.104,0.104,0.104,0.103,0.103,0.102,0.102,0.101,0.1,0.099,0.098,0.098,0.097,0.096,0.095,0.094,0.092,0.091,0.09,0.089,0.088,0.087,0.086,0.085,0.085,0.084,0.084,0.083,0.082,0.082,0.081,0.081,0.081,0.08,0.08,0.08,0.079,0.079,0.079,0.079,0.078,0.078,0.078,0.078,0.078,0.078,0.078,0.077,0.077,0.077,0.077,0.076,0.076,0.076,0.076,0.075,0.075,0.074,0.074,0.074,0.073,0.073,0.073,0.072,0.072,0.072,0.072,0.071,0.071,0.071,0.071,0.071,0.071,0.071,0.071,0.07,0.07,0.07,0.07,0.07,0.07,0.07,0.07,0.07,0.069,0.069,0.069,0.068,0.068,0.068,0.068,0.067,0.067,0.067,0.066,0.066,0.066,0.066,0.065,0.065,0.065,0.065,0.065,0.065,0.065,0.065,0.064,0.064,0.064,0.064,0.064,0.064,0.064,0.064,0.063,0.064,0.064,0.064,0.064,0.064,0.064,0.064,0.065,0.065,0.065,0.066,0.066,0.067,0.067,0.068,0.068,0.069,0.069,0.07,0.071,0.071,0.072,0.073,0.075,0.076,0.078,0.08,0.083,0.086,0.09,0.095,0.1,0.105,0.111,0.118,0.125,0.133,0.141,0.149,0.158,0.167,0.176,0.185,0.195,0.205,0.215,0.225,0.236,0.247,0.257,0.268,0.279,0.29,0.301,0.311,0.322,0.333,0.343,0.353,0.363,0.372,0.382,0.39,0.399,0.407,0.415,0.422,0.429,0.436,0.442,0.448,0.454,0.459,0.464,0.469,0.473,0.477,0.481,0.484,0.487,0.49,0.493,0.495,0.497,0.5,0.501,0.503,0.505,0.506,0.507,0.508,0.509,0.51,0.511,0.512,0.512,0.513,0.514,0.514,0.514,0.515,0.515,0.515,0.516,0.516,0.516,0.517,0.517,0.517,0.517,0.517,0.517,0.517,0.518,0.518,0.518,0.518,0.518,0.518,0.518,0.518,0.519,0.519,0.519,0.519,0.519,0.519,0.519,0.519,0.52,0.52,0.52,0.52,0.52,0.52,0.52,0.52,0.52,0.52,0.52,0.52,0.52,0.52,0.521,0.521,0.521,0.521,0.521,0.521,0.521,0.521,0.521,0.521,0.521,0.521,0.521,0.522,0.522,0.522,0.522,0.522,0.522,0.522,0.522,0.522,0.522,0.522,0.522,0.523,0.523,0.523,0.523,0.523,0.523,0.523,0.523,0.523,0.523,0.524,0.524,0.524,0.524,0.524,0.524,0.524,0.524,0.524,0.524,0.524,0.524,0.525,0.525,0.525,0.525,0.525,0.525,0.525,0.525,0.525,0.525,0.525,0.525,0.525,0.525,0.525,0.526,0.526,0.526,0.526,0.526,0.526,0.526,0.526,0.526,0.526,0.526,0.526,0.526,0.526,0.526,0.526,0.526,0.526,0.526,0.526,0.526,0.526,0.526,0.527,0.527,0.526,0.526,0.526,0.526,0.527,0.527,0.527,0.527,0.527,0.527,0.527,0.527,0.527,0.527,0.527,0.527,0.527,0.527,0.527,0.527,0.527,0.527,0.527,0.527,0.527,0.527,0.527,0.527,0.527,0.527,0.527,0.527,0.527,0.527,0.527,0.527,0.527,0.527,0.527,0.527,0.526,0.526,0.526,0.526,0.526,0.526,0.526,0.526,0.525,0.525,0.525,0.525,0.525,0.524,0.524,0.524,0.524,0.523,0.523,0.523,0.522,0.522,0.522,0.522,0.522,0.521,0.522,0.522,0.521,0.521,0.522,0.522,0.522,0.522,0.522,0.522,0.522,0.522,0.522,0.522,0.522,0.522,0.522,0.522,0.523,0.523,0.523,0.523,0.524,0.524,0.524,0.524,0.524,0.525,0.525,0.525,0.525,0.526,0.526,0.526,0.526,0.527,0.527,0.501,0.502,0.502,0.502,0.502,0.502,0.502,0.502,0.502,0.503,0.503,0.503,0.503,0.503,0.503,0.504,0.504,0.504,0.504,0.504,0.504,0.504,0.504,0.504,0.505,0.505,0.505,0.505,0.505,0.505,0.505,0.505,0.506,0.506,0.506,0.506,0.506,0.506,0.506,0.506,0.506,0.506,0.506,0.506,0.506,0.507,0.507,0.507,0.507,0.507,0.507,0.507,0.507,0.507,0.507,0.507,0.507,0.507,0.507,0.507,0.507,0.507,0.507,0.507,0.507,0.507,0.507,0.507,0.507,0.507,0.507,0.506,0.506,0.506,0.506,0.506,0.506,0.506,0.506,0.506,0.506,0.506,0.506,0.506,0.506,0.506,0.506,0.506,0.505,0.505,0.505,0.505,0.505,0.505,0.505,0.505,0.505,0.505,0.505,0.505
0.082,0.073,0.084,0.091,0.09,0.084,0.084,0.08,0.074,0.07,0.071,0.07,0.068,0.069,0.064,0.066,0.073,0.071,0.069,0.068,0.068,0.068,0.064,0.061,0.061,0.062,0.06,0.06,0.064,0.062,0.061,0.063,0.066,0.063,0.058,0.056,0.06,0.06,0.059,0.058,0.058,0.059,0.059,0.057,0.059,0.059,0.057,0.058,0.057,0.055,0.056,0.057,0.057,0.057,0.057,0.055,0.055,0.056,0.056,0.056,0.057,0.057,0.056,0.056,0.057,0.056,0.056,0.057,0.057,0.057,0.056,0.057,0.058,0.057,0.057,0.058,0.058,0.058,0.058,0.058,0.058,0.058,0.058,0.059,0.058,0.058,0.058,0.058,0.058,0.058,0.059,0.059,0.059,0.059,0.059,0.059,0.059,0.059,0.06,0.059,0.059,0.059,0.058,0.059,0.06,0.06,0.059,0.059,0.059,0.059,0.059,0.06,0.06,0.06,0.059,0.059,0.059,0.059,0.059,0.06,0.059,0.059,0.059,0.059,0.059,0.059,0.059,0.059,0.059,0.059,0.059,0.059,0.059,0.059,0.059,0.06,0.06,0.06,0.06,0.06,0.06,0.06,0.06,0.06,0.06,0.061,0.061,0.061,0.061,0.061,0.061,0.062,0.062,0.062,0.063,0.063,0.064,0.064,0.065,0.066,0.066,0.067,0.068,0.069,0.07,0.071,0.072,0.073,0.075,0.076,0.077,0.079,0.08,0.082,0.083,0.085,0.086,0.087,0.088,0.09,0.091,0.091,0.092,0.093,0.094,0.094,0.095,0.095,0.096,0.096,0.096,0.096,0.097,0.097,0.097,0.097,0.098,0.098,0.098,0.098,0.098,0.099,0.099,0.099,0.099,0.098,0.098,0.098,0.097,0.096,0.096,0.095,0.094,0.093,0.092,0.091,0.09,0.089,0.088,0.087,0.086,0.085,0.084,0.083,0.082,0.081,0.08,0.08,0.079,0.078,0.078,0.077,0.077,0.076,0.076,0.076,0.075,0.075,0.075,0.074,0.074,0.074,0.074,0.074,0.073,0.073,0.073,0.073,0.073,0.073,0.073,0.072,0.072,0.072,0.072,0.071,0.071,0.071,0.071,0.07,0.07,0.07,0.069,0.069,0.068,0.068,0.068,0.068,0.067,0.067,0.067,0.067,0.066,0.066,0.066,0.066,0.066,0.066,0.066,0.066,0.066,0.066,0.066,0.066,0.066,0.065,0.065,0.065,0.065,0.065,0.064,0.064,0.064,0.063,0.063,0.063,0.063,0.062,0.062,0.062,0.062,0.061,0.061,0.061,0.061,0.061,0.061,0.061,0.061,0.06,0.06,0.06,0.06,0.06,0.06,0.06,0.06,0.06,0.06,0.06,0.06,0.06,0.06,0.06,0.061,0.061,0.061,0.062,0.062,0.062,0.063,0.063,0.064,0.064,0.065,0.065,0.066,0.067,0.067,0.068,0.069,0.07,0.072,0.074,0.076,0.078,0.081,0.085,0.089,0.094,0.099,0.106,0.112,0.119,0.127,0.135,0.143,0.152,0.161,0.171,0.18,0.19,0.201,0.211,0.222,0.233,0.244,0.255,0.266,0.278,0.289,0.301,0.312,0.323,0.334,0.345,0.355,0.365,0.375,0.385,0.394,0.403,0.412,0.42,0.428,0.435,0.442,0.449,0.455,0.461,0.467,0.472,0.477,0.481,0.486,0.49,0.493,0.497,0.5,0.502,0.505,0.507,0.51,0.512,0.513,0.515,0.516,0.518,0.519,0.52,0.521,0.522,0.523,0.523,0.524,0.525,0.525,0.526,0.526,0.526,0.527,0.527,0.527,0.528,0.528,0.528,0.528,0.528,0.529,0.529,0.529,0.529,0.529,0.53,0.53,0.53,0.53,0.53,0.53,0.53,0.53,0.531,0.531,0.531,0.531,0.531,0.531,0.531,0.531,0.531,0.531,0.531,0.532,0.532,0.532,0.532,0.532,0.532,0.532,0.532,0.532,0.532,0.532,0.532,0.533,0.533,0.533,0.533,0.533,0.533,0.533,0.533,0.533,0.533,0.533,0.533,0.533,0.534,0.534,0.534,0.534,0.534,0.534,0.534,0.534,0.534,0.534,0.534,0.534,0.534,0.535,0.535,0.535,0.535,0.535,0.535,0.535,0.535,0.535,0.535,0.535,0.536,0.536,0.536,0.536,0.536,0.536,0.536,0.536,0.536,0.536,0.536,0.536,0.536,0.537,0.537,0.537,0.537,0.537,0.537,0.537,0.537,0.537,0.537,0.537,0.537,0.537,0.537,0.537,0.537,0.538,0.538,0.538,0.538,0.538,0.538,0.538,0.538,0.538,0.538,0.538,0.538,0.538,0.538,0.538,0.538,0.538,0.538,0.538,0.538,0.538,0.538,0.538,0.538,0.538,0.538,0.538,0.538,0.538,0.538,0.538,0.538,0.538,0.538,0.538,0.538,0.538,0.539,0.539,0.539,0.539,0.539,0.539,0.539,0.539,0.539,0.539,0.539,0.538,0.538,0.539,0.538,0.538,0.538,0.538,0.538,0.538,0.538,0.538,0.538,0.538,0.538,0.537,0.537,0.537,0.537,0.537,0.537,0.536,0.536,0.536,0.536,0.535,0.535,0.535,0.534,0.534,0.534,0.534,0.533,0.533,0.533,0.533,0.533,0.533,0.533,0.533,0.533,0.533,0.533,0.533,0.533,0.533,0.533,0.533,0.533,0.533,0.533,0.533,0.533,0.534,0.534,0.534,0.534,0.534,0.534,0.535,0.535,0.535,0.535,0.536,0.536,0.536,0.537,0.537,0.537,0.537,0.538,0.538,0.538,0.538,0.511,0.511,0.511,0.511,0.512,0.512,0.512,0.512,0.512,0.512,0.512,0.512,0.513,0.513,0.513,0.513,0.513,0.513,0.514,0.514,0.514,0.514,0.514,0.514,0.514,0.514,0.515,0.515,0.515,0.515,0.515,0.515,0.515,0.515,0.515,0.515,0.515,0.515,0.516,0.516,0.516,0.516,0.516,0.516,0.516,0.516,0.516,0.516,0.516,0.516,0.516,0.516,0.516,0.516,0.516,0.516,0.516,0.516,0.516,0.516,0.516,0.516,0.516,0.516,0.516,0.516,0.516,0.516,0.516,0.516,0.516,0.516,0.516,0.516,0.516,0.516,0.516,0.516,0.516,0.516,0.516,0.515,0.515,0.515,0.515,0.515,0.515,0.515,0.515,0.515,0.515,0.515,0.515,0.515,0.515,0.515,0.515,0.515,0.515,0.515
0.077,0.084,0.082,0.086,0.087,0.081,0.085,0.084,0.081,0.084,0.076,0.073,0.075,0.073,0.073,0.074,0.074,0.07,0.068,0.069,0.069,0.064,0.068,0.074,0.071,0.067,0.065,0.066,0.069,0.07,0.068,0.064,0.065,0.062,0.063,0.067,0.066,0.064,0.064,0.065,0.06,0.062,0.066,0.063,0.06,0.06,0.062,0.061,0.062,0.063,0.063,0.063,0.06,0.06,0.063,0.062,0.061,0.061,0.061,0.062,0.062,0.062,0.062,0.062,0.062,0.061,0.062,0.063,0.064,0.063,0.063,0.063,0.064,0.063,0.063,0.064,0.064,0.064,0.063,0.063,0.064,0.064,0.064,0.064,0.064,0.064,0.064,0.064,0.064,0.064,0.064,0.063,0.064,0.064,0.065,0.065,0.064,0.064,0.065,0.064,0.064,0.065,0.064,0.064,0.065,0.065,0.065,0.065,0.065,0.064,0.064,0.064,0.065,0.065,0.065,0.064,0.064,0.064,0.064,0.064,0.064,0.065,0.064,0.064,0.064,0.064,0.064,0.064,0.064,0.064,0.064,0.064,0.064,0.064,0.064,0.064,0.064,0.064,0.064,0.064,0.064,0.064,0.064,0.064,0.064,0.065,0.065,0.065,0.065,0.065,0.065,0.065,0.066,0.066,0.066,0.067,0.067,0.068,0.068,0.069,0.069,0.07,0.071,0.072,0.073,0.074,0.075,0.076,0.077,0.079,0.08,0.081,0.083,0.084,0.086,0.087,0.088,0.089,0.091,0.091,0.092,0.093,0.094,0.095,0.095,0.096,0.096,0.097,0.097,0.097,0.097,0.097,0.098,0.098,0.098,0.098,0.098,0.098,0.099,0.099,0.099,0.099,0.099,0.099,0.098,0.098,0.098,0.097,0.097,0.096,0.095,0.094,0.093,0.093,0.092,0.091,0.09,0.089,0.088,0.086,0.085,0.084,0.083,0.082,0.081,0.08,0.08,0.079,0.078,0.078,0.077,0.077,0.076,0.076,0.075,0.075,0.075,0.074,0.074,0.074,0.074,0.073,0.073,0.073,0.073,0.073,0.073,0.073,0.072,0.072,0.072,0.072,0.072,0.071,0.071,0.071,0.071,0.071,0.07,0.07,0.07,0.069,0.069,0.069,0.068,0.068,0.068,0.068,0.068,0.067,0.067,0.067,0.067,0.067,0.067,0.066,0.066,0.066,0.066,0.066,0.066,0.066,0.066,0.066,0.066,0.066,0.066,0.065,0.065,0.065,0.065,0.064,0.064,0.064,0.064,0.064,0.063,0.063,0.063,0.063,0.063,0.063,0.063,0.063,0.062,0.062,0.062,0.062,0.062,0.062,0.062,0.062,0.062,0.062,0.062,0.062,0.062,0.063,0.063,0.063,0.063,0.063,0.064,0.064,0.065,0.065,0.065,0.066,0.067,0.067,0.068,0.068,0.069,0.07,0.07,0.071,0.071,0.072,0.072,0.073,0.074,0.074,0.076,0.077,0.079,0.081,0.084,0.087,0.092,0.096,0.102,0.108,0.115,0.122,0.13,0.139,0.148,0.157,0.166,0.176,0.187,0.197,0.208,0.219,0.23,0.241,0.252,0.264,0.275,0.287,0.299,0.31,0.322,0.333,0.344,0.355,0.365,0.376,0.386,0.395,0.405,0.414,0.422,0.43,0.438,0.445,0.452,0.459,0.465,0.471,0.476,0.481,0.486,0.49,0.494,0.498,0.502,0.505,0.508,0.51,0.513,0.515,0.517,0.519,0.52,0.522,0.523,0.524,0.525,0.526,0.527,0.527,0.528,0.529,0.529,0.53,0.53,0.53,0.53,0.531,0.531,0.531,0.531,0.531,0.531,0.531,0.532,0.532,0.532,0.532,0.532,0.532,0.532,0.532,0.532,0.532,0.532,0.532,0.532,0.532,0.532,0.532,0.533,0.533,0.533,0.533,0.533,0.533,0.533,0.533,0.533,0.533,0.533,0.533,0.533,0.533,0.533,0.533,0.533,0.533,0.533,0.533,0.533,0.533,0.533,0.533,0.533,0.533,0.533,0.533,0.533,0.533,0.533,0.534,0.534,0.534,0.534,0.534,0.534,0.534,0.534,0.534,0.534,0.534,0.534,0.534,0.534,0.534,0.534,0.534,0.534,0.534,0.534,0.534,0.534,0.534,0.534,0.534,0.534,0.534,0.534,0.534,0.534,0.534,0.534,0.534,0.534,0.534,0.535,0.535,0.535,0.535,0.535,0.535,0.535,0.535,0.535,0.535,0.535,0.535,0.535,0.535,0.535,0.535,0.535,0.535,0.535,0.535,0.535,0.535,0.535,0.535,0.535,0.535,0.535,0.535,0.535,0.535,0.535,0.535,0.535,0.535,0.535,0.535,0.535,0.535,0.535,0.535,0.535,0.535,0.535,0.535,0.535,0.535,0.535,0.535,0.535,0.535,0.535,0.535,0.535,0.535,0.535,0.535,0.535,0.535,0.535,0.535,0.535,0.535,0.535,0.535,0.535,0.535,0.535,0.535,0.535,0.535,0.535,0.534,0.534,0.534,0.534,0.534,0.534,0.534,0.534,0.534,0.533,0.533,0.533,0.533,0.533,0.533,0.532,0.532,0.532,0.532,0.531,0.531,0.531,0.531,0.53,0.53,0.53,0.529,0.529,0.528,0.528,0.528,0.528,0.527,0.527,0.527,0.527,0.527,0.527,0.527,0.527,0.527,0.527,0.527,0.527,0.527,0.527,0.527,0.527,0.527,0.527,0.528,0.528,0.528,0.528,0.528,0.528,0.529,0.529,0.529,0.529,0.529,0.53,0.53,0.53,0.53,0.53,0.531,0.531,0.532,0.532,0.532,0.532,0.51,0.51,0.51,0.51,0.51,0.51,0.51,0.511,0.511,0.511,0.511,0.511,0.512,0.512,0.512,0.512,0.512,0.512,0.512,0.513,0.513,0.513,0.513,0.513,0.513,0.513,0.513,0.513,0.514,0.514,0.514,0.514,0.514,0.514,0.514,0.514,0.514,0.515,0.515,0.515,0.515,0.515,0.515,0.515,0.515,0.515,0.515,0.515,0.515,0.515,0.515,0.515,0.515,0.515,0.515,0.515,0.515,0.515,0.515,0.515,0.515,0.515,0.515,0.515,0.515,0.515,0.515,0.515,0.515,0.515,0.515,0.515,0.515,0.515,0.515,0.515,0.515,0.515,0.515,0.515,0.515,0.515,0.514,0.514,0.514,0.514,0.514,0.514,0.514,0.514,0.514,0.514,0.514,0.514,0.514,0.514,0.514,0.514,0.514,0.514
0.088,0.087,0.083,0.078,0.077,0.079,0.075,0.075,0.074,0.068,0.07,0.072,0.072,0.071,0.066,0.065,0.068,0.068,0.065,0.065,0.067,0.064,0.06,0.058,0.06,0.065,0.064,0.061,0.063,0.062,0.061,0.06,0.059,0.062,0.062,0.059,0.06,0.062,0.061,0.058,0.058,0.058,0.058,0.056,0.057,0.056,0.054,0.055,0.056,0.057,0.057,0.058,0.056,0.055,0.056,0.055,0.056,0.056,0.054,0.056,0.056,0.055,0.056,0.056,0.056,0.055,0.056,0.057,0.057,0.056,0.056,0.057,0.057,0.056,0.056,0.057,0.057,0.057,0.057,0.057,0.058,0.058,0.058,0.058,0.058,0.059,0.058,0.058,0.058,0.059,0.059,0.059,0.058,0.058,0.058,0.059,0.059,0.059,0.059,0.059,0.059,0.059,0.06,0.059,0.06,0.06,0.06,0.06,0.06,0.06,0.059,0.059,0.059,0.059,0.06,0.06,0.059,0.059,0.059,0.059,0.06,0.059,0.059,0.059,0.059,0.059,0.059,0.059,0.059,0.059,0.059,0.059,0.059,0.059,0.059,0.059,0.059,0.059,0.059,0.059,0.059,0.059,0.059,0.059,0.059,0.06,0.06,0.06,0.061,0.061,0.061,0.061,0.062,0.062,0.062,0.063,0.063,0.064,0.065,0.066,0.066,0.068,0.069,0.07,0.071,0.072,0.074,0.075,0.077,0.079,0.08,0.082,0.084,0.086,0.088,0.089,0.091,0.093,0.094,0.095,0.097,0.098,0.099,0.1,0.101,0.101,0.102,0.102,0.102,0.103,0.103,0.103,0.104,0.104,0.104,0.104,0.105,0.105,0.105,0.105,0.106,0.106,0.106,0.106,0.105,0.105,0.104,0.104,0.103,0.102,0.101,0.1,0.099,0.098,0.097,0.096,0.095,0.094,0.092,0.091,0.09,0.088,0.087,0.086,0.085,0.084,0.083,0.082,0.081,0.08,0.079,0.079,0.078,0.077,0.077,0.076,0.076,0.076,0.075,0.075,0.075,0.074,0.074,0.074,0.074,0.073,0.073,0.073,0.073,0.073,0.072,0.072,0.072,0.072,0.071,0.071,0.071,0.07,0.07,0.069,0.069,0.069,0.068,0.068,0.067,0.067,0.067,0.066,0.066,0.066,0.065,0.065,0.065,0.065,0.065,0.064,0.064,0.064,0.064,0.064,0.064,0.064,0.064,0.064,0.064,0.063,0.063,0.063,0.063,0.062,0.062,0.062,0.061,0.061,0.061,0.06,0.06,0.06,0.059,0.059,0.059,0.059,0.059,0.059,0.058,0.058,0.058,0.058,0.058,0.058,0.058,0.057,0.057,0.057,0.057,0.057,0.057,0.057,0.057,0.057,0.057,0.058,0.058,0.058,0.058,0.059,0.059,0.059,0.06,0.06,0.061,0.061,0.062,0.063,0.063,0.064,0.064,0.065,0.066,0.067,0.068,0.069,0.071,0.073,0.076,0.079,0.083,0.087,0.092,0.098,0.105,0.112,0.12,0.128,0.137,0.146,0.155,0.165,0.175,0.185,0.196,0.206,0.217,0.228,0.239,0.251,0.262,0.273,0.285,0.296,0.307,0.319,0.33,0.34,0.351,0.362,0.372,0.382,0.391,0.4,0.409,0.418,0.426,0.433,0.441,0.448,0.454,0.46,0.466,0.472,0.477,0.482,0.486,0.49,0.494,0.498,0.501,0.504,0.506,0.509,0.511,0.513,0.515,0.517,0.518,0.52,0.521,0.522,0.523,0.524,0.525,0.525,0.526,0.527,0.527,0.527,0.528,0.528,0.528,0.529,0.529,0.529,0.529,0.529,0.53,0.53,0.53,0.53,0.53,0.53,0.53,0.53,0.53,0.53,0.53,0.53,0.531,0.531,0.531,0.531,0.531,0.531,0.531,0.531,0.531,0.531,0.531,0.531,0.531,0.531,0.531,0.531,0.531,0.531,0.531,0.531,0.531,0.531,0.531,0.531,0.532,0.532,0.532,0.532,0.532,0.532,0.532,0.532,0.532,0.532,0.532,0.532,0.532,0.532,0.532,0.532,0.532,0.532,0.532,0.532,0.532,0.532,0.532,0.532,0.532,0.532,0.532,0.532,0.532,0.532,0.532,0.532,0.532,0.533,0.533,0.533,0.533,0.533,0.533,0.533,0.533,0.533,0.533,0.533,0.533,0.533,0.533,0.533,0.533,0.533,0.533,0.533,0.533,0.533,0.533,0.533,0.533,0.533,0.533,0.533,0.533,0.534,0.534,0.533,0.534,0.534,0.534,0.534,0.533,0.534,0.534,0.534,0.534,0.534,0.534,0.534,0.534,0.534,0.534,0.533,0.534,0.534,0.534,0.533,0.534,0.534,0.533,0.533,0.533,0.533,0.533,0.533,0.533,0.533,0.533,0.533,0.533,0.533,0.533,0.533,0.533,0.533,0.533,0.533,0.533,0.533,0.533,0.533,0.533,0.533,0.533,0.533,0.533,0.533,0.533,0.533,0.533,0.533,0.533,0.533,0.533,0.532,0.532,0.532,0.532,0.532,0.532,0.532,0.531,0.531,0.531,0.531,0.531,0.531,0.53,0.53,0.53,0.53,0.529,0.529,0.529,0.528,0.528,0.527,0.527,0.526,0.526,0.526,0.525,0.525,0.525,0.524,0.524,0.524,0.524,0.523,0.523,0.523,0.523,0.523,0.523,0.523,0.523,0.523,0.523,0.523,0.523,0.523,0.523,0.523,0.524,0.524,0.524,0.524,0.524,0.525,0.525,0.525,0.525,0.525,0.525,0.526,0.526,0.526,0.526,0.527,0.527,0.527,0.528,0.528,0.528,0.511,0.511,0.511,0.511,0.511,0.512,0.512,0.512,0.512,0.512,0.512,0.513,0.513,0.513,0.513,0.513,0.514,0.514,0.514,0.514,0.514,0.515,0.515,0.515,0.515,0.515,0.515,0.516,0.516,0.516,0.516,0.516,0.516,0.516,0.516,0.516,0.517,0.517,0.517,0.517,0.517,0.517,0.517,0.517,0.517,0.517,0.517,0.518,0.518,0.518,0.518,0.518,0.518,0.518,0.518,0.518,0.518,0.518,0.518,0.518,0.518,0.518,0.519,0.519,0.518,0.518,0.518,0.518,0.518,0.518,0.518,0.518,0.518,0.518,0.518,0.518,0.518,0.518,0.518,0.518,0.518,0.518,0.518,0.518,0.518,0.518,0.518,0.518,0.518,0.518,0.517,0.517,0.517,0.517,0.517,0.517,0.517,0.517,0.517,0.517
0.089,0.087,0.084,0.083,0.085,0.087,0.077,0.076,0.08,0.079,0.074,0.071,0.07,0.068,0.067,0.072,0.076,0.067,0.065,0.066,0.064,0.06,0.06,0.06,0.059,0.063,0.064,0.063,0.063,0.063,0.063,0.061,0.06,0.06,0.062,0.063,0.059,0.059,0.06,0.059,0.058,0.058,0.057,0.058,0.057,0.055,0.053,0.054,0.053,0.054,0.057,0.056,0.056,0.056,0.056,0.055,0.055,0.055,0.056,0.055,0.055,0.055,0.055,0.055,0.055,0.055,0.055,0.056,0.057,0.057,0.057,0.057,0.057,0.057,0.058,0.059,0.059,0.058,0.058,0.059,0.059,0.059,0.06,0.061,0.06,0.059,0.059,0.06,0.061,0.061,0.061,0.06,0.061,0.061,0.061,0.062,0.062,0.062,0.062,0.062,0.062,0.062,0.062,0.063,0.063,0.063,0.063,0.063,0.063,0.063,0.063,0.063,0.063,0.064,0.064,0.064,0.063,0.063,0.063,0.063,0.063,0.063,0.064,0.064,0.063,0.064,0.064,0.064,0.064,0.064,0.064,0.064,0.064,0.064,0.064,0.064,0.064,0.064,0.064,0.065,0.065,0.065,0.065,0.065,0.066,0.066,0.066,0.066,0.067,0.067,0.067,0.068,0.068,0.069,0.07,0.071,0.071,0.072,0.073,0.074,0.075,0.076,0.077,0.079,0.081,0.082,0.083,0.085,0.087,0.088,0.09,0.092,0.094,0.095,0.097,0.099,0.1,0.102,0.103,0.104,0.106,0.107,0.108,0.108,0.109,0.11,0.11,0.111,0.111,0.112,0.112,0.112,0.113,0.113,0.113,0.113,0.114,0.114,0.115,0.115,0.115,0.115,0.115,0.115,0.115,0.115,0.115,0.114,0.113,0.113,0.112,0.111,0.11,0.11,0.109,0.108,0.107,0.105,0.104,0.103,0.102,0.101,0.1,0.098,0.097,0.096,0.095,0.095,0.094,0.093,0.092,0.092,0.091,0.091,0.09,0.09,0.089,0.089,0.089,0.088,0.088,0.088,0.087,0.087,0.087,0.087,0.087,0.086,0.086,0.086,0.086,0.085,0.085,0.085,0.085,0.084,0.084,0.084,0.083,0.083,0.082,0.082,0.081,0.081,0.08,0.08,0.079,0.079,0.079,0.078,0.078,0.078,0.077,0.077,0.077,0.077,0.077,0.077,0.076,0.076,0.076,0.076,0.076,0.076,0.076,0.076,0.075,0.075,0.075,0.074,0.074,0.073,0.073,0.072,0.072,0.072,0.071,0.071,0.07,0.07,0.069,0.069,0.069,0.069,0.068,0.068,0.068,0.068,0.067,0.067,0.066,0.066,0.066,0.065,0.065,0.065,0.065,0.064,0.064,0.064,0.064,0.064,0.064,0.064,0.064,0.065,0.065,0.065,0.066,0.066,0.067,0.067,0.068,0.068,0.069,0.07,0.071,0.072,0.073,0.075,0.077,0.079,0.081,0.084,0.087,0.091,0.095,0.099,0.104,0.11,0.116,0.123,0.13,0.137,0.145,0.153,0.162,0.171,0.18,0.189,0.199,0.209,0.219,0.229,0.24,0.251,0.262,0.273,0.284,0.295,0.306,0.318,0.329,0.34,0.351,0.362,0.373,0.383,0.393,0.403,0.413,0.422,0.431,0.439,0.447,0.455,0.462,0.469,0.476,0.482,0.488,0.493,0.498,0.503,0.508,0.512,0.516,0.519,0.522,0.525,0.528,0.531,0.533,0.535,0.537,0.539,0.54,0.542,0.543,0.544,0.545,0.546,0.547,0.548,0.549,0.549,0.55,0.55,0.551,0.551,0.552,0.552,0.552,0.553,0.553,0.553,0.553,0.554,0.554,0.554,0.554,0.554,0.555,0.555,0.555,0.555,0.555,0.555,0.555,0.555,0.556,0.556,0.556,0.556,0.556,0.556,0.556,0.557,0.557,0.557,0.557,0.557,0.557,0.557,0.557,0.557,0.557,0.557,0.557,0.558,0.558,0.558,0.558,0.558,0.558,0.558,0.558,0.558,0.558,0.558,0.558,0.558,0.559,0.559,0.559,0.559,0.559,0.559,0.559,0.559,0.559,0.559,0.559,0.559,0.559,0.559,0.559,0.56,0.56,0.56,0.56,0.56,0.56,0.56,0.56,0.56,0.56,0.56,0.561,0.561,0.561,0.561,0.561,0.561,0.561,0.561,0.561,0.561,0.561,0.561,0.561,0.562,0.562,0.561,0.561,0.561,0.562,0.562,0.562,0.562,0.562,0.562,0.562,0.562,0.562,0.562,0.562,0.562,0.562,0.562,0.562,0.562,0.562,0.562,0.562,0.562,0.562,0.562,0.562,0.562,0.562,0.562,0.562,0.562,0.563,0.563,0.562,0.562,0.562,0.562,0.562,0.562,0.562,0.562,0.563,0.563,0.563,0.563,0.563,0.563,0.563,0.563,0.563,0.563,0.563,0.563,0.563,0.563,0.563,0.563,0.563,0.563,0.563,0.563,0.563,0.563,0.563,0.563,0.562,0.562,0.562,0.562,0.562,0.562,0.562,0.561,0.561,0.561,0.561,0.561,0.56,0.56,0.56,0.56,0.56,0.56,0.559,0.559,0.559,0.558,0.558,0.558,0.557,0.557,0.556,0.556,0.555,0.555,0.555,0.554,0.554,0.554,0.554,0.553,0.553,0.553,0.553,0.553,0.553,0.553,0.553,0.553,0.553,0.553,0.553,0.553,0.553,0.553,0.554,0.554,0.554,0.554,0.555,0.555,0.555,0.555,0.555,0.555,0.556,0.556,0.556,0.556,0.557,0.557,0.557,0.558,0.558,0.558,0.558,0.559,0.559,0.538,0.538,0.538,0.538,0.539,0.539,0.539,0.539,0.539,0.539,0.54,0.54,0.54,0.54,0.54,0.54,0.541,0.541,0.541,0.541,0.541,0.542,0.542,0.542,0.542,0.542,0.542,0.543,0.543,0.543,0.543,0.543,0.543,0.543,0.543,0.543,0.544,0.544,0.544,0.544,0.544,0.544,0.544,0.544,0.544,0.544,0.544,0.545,0.545,0.545,0.545,0.545,0.545,0.545,0.545,0.545,0.545,0.545,0.545,0.545,0.545,0.545,0.545,0.545,0.545,0.545,0.545,0.545,0.545,0.545,0.545,0.545,0.545,0.545,0.545,0.545,0.545,0.545,0.545,0.545,0.545,0.545,0.545,0.545,0.544,0.544,0.544,0.544,0.544,0.544,0.544,0.544,0.544,0.544,0.544,0.544,0.544,0.544,0.544,0.543
