-1.120000000000009877e-04,-1.250000000000001110e-04,-4.599999999999743183e-05,-2.800000000000024691e-05,4.499999999999643174e-05,9.400000000000380274e-05,1.279999999999961724e-04,2.170000000000019136e-04,3.990000000000035185e-04,4.849999999999993205e-04,7.119999999999973572e-04,8.789999999999978386e-04,1.155000000000003246e-03,1.459999999999996023e-03,1.667000000000001814e-03,2.054000000000000270e-03,2.294999999999998430e-03,2.504000000000006221e-03,2.856999999999998430e-03,2.936000000000001109e-03,3.168999999999991268e-03,3.371999999999999997e-03,3.306000000000003380e-03,3.548999999999996602e-03,3.539000000000000479e-03,3.369000000000010875e-03,3.487999999999991108e-03,3.280000000000005134e-03,3.174999999999997269e-03,3.099000000000004529e-03,2.802999999999999936e-03,2.750000000000002442e-03,2.609999999999987330e-03,2.310000000000006493e-03,2.350000000000004863e-03,2.269999999999994245e-03,2.229999999999995874e-03,2.270000000000008122e-03,2.169999999999991380e-03,2.260000000000011999e-03,2.219999999999999751e-03,2.029999999999990146e-03,2.030000000000004023e-03,1.819999999999988294e-03,1.610000000000000320e-03,1.410000000000022347e-03,1.140000000000002123e-03,9.099999999999941469e-04,6.599999999999939249e-04,3.599999999999992095e-04,1.099999999999989875e-04,-1.599999999999934808e-04,-4.500000000000059508e-04,-7.399999999999906652e-04,-1.010000000000010889e-03,-1.319999999999987850e-03,-1.579999999999998073e-03,-1.700000000000007061e-03,-1.939999999999997282e-03,-2.020000000000007900e-03,-2.030000000000004023e-03,-2.059999999999992393e-03,-1.969999999999999529e-03,-1.920000000000005036e-03,-1.850000000000004419e-03,-1.649999999999998690e-03,-1.599999999999990319e-03,-1.469999999999999085e-03,-1.260000000000011111e-03,-1.199999999999992739e-03,-1.039999999999999258e-03,-9.400000000000102718e-04,-8.299999999999974065e-04,-7.100000000000022959e-04,-6.599999999999939249e-04,-5.899999999999933076e-04,-5.200000000000065681e-04,-4.900000000000043210e-04,-4.399999999999959499e-04,-4.200000000000037037e-04,-4.199999999999898259e-04,-3.700000000000092104e-04,-4.129999999999967031e-04,-4.050000000000025802e-04,-4.249999999999948264e-04,-4.460000000000019504e-04,-4.549999999999970735e-04,-5.170000000000035678e-04,-5.320000000000046914e-04,-5.329999999999918137e-04,-5.409999999999998144e-04,-5.480000000000068150e-04,-5.089999999999955671e-04,-5.010000000000014442e-04,-4.230000000000067040e-04,-3.869999999999984563e-04,-3.129999999999938387e-04,-2.440000000000080993e-04,-1.699999999999896039e-04,-4.600000000000437073e-05,2.800000000000024691e-05,1.550000000000023581e-04,2.400000000000040989e-04,3.769999999999884555e-04,4.950000000000093214e-04,6.429999999999908011e-04,7.830000000000059135e-04,9.630000000000055183e-04,1.052999999999998382e-03,1.295999999999991603e-03,1.365000000000005098e-03,1.629999999999992566e-03,1.800000000000009925e-03,1.890000000000002789e-03,2.110000000000000764e-03,2.249999999999988121e-03,2.390000000000003233e-03,2.589999999999995084e-03,2.580000000000012839e-03,2.779999999999990812e-03,2.890000000000003677e-03,2.840000000000009184e-03,3.019999999999994911e-03,2.950000000000008171e-03,3.039999999999987157e-03,3.049999999999997158e-03,2.890000000000003677e-03,2.939999999999998170e-03,2.829999999999999183e-03,2.640000000000003455e-03,2.620000000000011209e-03,2.429999999999987725e-03,2.379999999999993232e-03,2.350000000000018741e-03,2.179999999999987503e-03,2.280000000000004245e-03,2.289999999999986491e-03,2.390000000000003233e-03,2.659999999999995701e-03,2.820000000000016938e-03,3.209999999999990639e-03,3.590000000000009850e-03,3.819999999999990070e-03,4.390000000000005009e-03,4.709999999999991971e-03,5.239999999999994662e-03,5.820000000000019602e-03,6.080000000000002069e-03,6.809999999999982734e-03,7.260000000000016440e-03,7.499999999999978906e-03,8.260000000000017328e-03,8.289999999999991820e-03,8.839999999999986757e-03,9.070000000000022489e-03,8.840000000000014513e-03,9.169999999999955964e-03,8.870000000000044516e-03,8.759999999999990017e-03,8.749999999999980016e-03,7.979999999999987104e-03,7.900000000000018119e-03,7.350000000000023181e-03,6.720000000000003748e-03,6.309999999999982290e-03,5.510000000000014886e-03,5.019999999999968932e-03,4.539999999999988489e-03,3.720000000000001084e-03,3.379999999999994120e-03,2.780000000000004690e-03,2.400000000000013234e-03,2.060000000000006271e-03,1.630000000000020322e-03,1.450000000000006839e-03,1.179999999999958860e-03,9.700000000000263967e-04,8.400000000000074074e-04,6.599999999999939249e-04,5.199999999999649347e-04,3.700000000000369660e-04,2.499999999999724665e-04,6.000000000000449418e-05,-7.000000000001449507e-05,-2.399999999999624656e-04,-4.000000000000114575e-04,-5.200000000000204459e-04,-6.899999999999684164e-04,-7.800000000000029132e-04,-8.900000000000019007e-04,-9.800000000000363976e-04,-9.999999999999453770e-04,-1.120000000000009877e-03,-1.159999999999994369e-03,-1.160000000000049880e-03,-1.309999999999977849e-03,-1.269999999999993356e-03,-1.390000000000002345e-03,-1.400000000000012346e-03,-1.400000000000012346e-03,-1.419999999999976836e-03,-1.489999999999991331e-03,-1.470000000000026841e-03,-1.560000000000005826e-03,-1.449999999999951328e-03,-1.530000000000031335e-03,-1.379999999999992344e-03,-1.439999999999996838e-03,-1.309999999999977849e-03,-1.300000000000023359e-03,-1.209999999999988862e-03,-1.090000000000035385e-03,-1.019999999999965379e-03,-9.200000000000319034e-04,-8.699999999999818989e-04,-7.499999999999729106e-04,-7.700000000000484235e-04,-5.599999999999494271e-04,-5.900000000000349409e-04,-4.399999999999959499e-04,-4.799999999999804423e-04,-4.399999999999959499e-04,-3.800000000000469669e-04,-3.699999999999814548e-04,-3.099999999999769607e-04,-3.500000000000169642e-04,-2.699999999999924682e-04,-2.800000000000024691e-04,-2.699999999999924682e-04,-3.299999999999969624e-04,-3.199999999999869615e-04,-3.200000000000424727e-04,-4.399999999999959499e-04,-4.199999999999759481e-04,-5.600000000000049383e-04,-5.700000000000149392e-04,-6.700000000000039257e-04,-7.399999999999629097e-04,-8.400000000000074074e-04,-9.800000000000363976e-04,-1.009999999999955378e-03,-1.160000000000049880e-03,-1.239999999999963354e-03,-1.390000000000002345e-03,-1.530000000000031335e-03,-1.560000000000005826e-03,-1.739999999999963798e-03,-1.719999999999999307e-03,-1.879999999999992788e-03,-1.939999999999997282e-03,-1.910000000000022791e-03,-2.049999999999996270e-03,-1.970000000000027285e-03,-2.069999999999960760e-03,-2.060000000000006271e-03,-1.960000000000017284e-03,-2.079999999999970761e-03,-1.950000000000007283e-03,-2.000000000000001776e-03,-1.970000000000027285e-03,-1.869999999999982787e-03,-1.919999999999977280e-03,-1.820000000000043805e-03,-1.799999999999968292e-03,-1.810000000000033804e-03,-1.659999999999994813e-03,-1.729999999999953797e-03,-1.590000000000035829e-03,-1.560000000000005826e-03,-1.529999999999975824e-03,-1.400000000000012346e-03,-1.400000000000012346e-03,-1.280000000000003357e-03,-1.209999999999988862e-03,-1.139999999999974367e-03,-9.700000000000263967e-04,-9.000000000000119016e-04,-7.299999999999529088e-04,-6.200000000000094325e-04,-5.400000000000404476e-04,-3.799999999999914557e-04,-2.800000000000024691e-04,-1.499999999999834799e-04,3.999999999998449240e-05,2.300000000000079758e-04,5.100000000000104450e-04,8.400000000000074074e-04,1.149999999999984368e-03,1.589999999999980318e-03,1.980000000000037286e-03,2.319999999999988738e-03,2.800000000000024691e-03,2.939999999999998170e-03,3.209999999999990639e-03,3.259999999999985132e-03,3.110000000000001652e-03,3.060000000000007159e-03,2.720000000000000195e-03,2.529999999999976712e-03,2.090000000000036273e-03,1.699999999999979305e-03,1.359999999999972342e-03,9.200000000000319034e-04,7.300000000000084199e-04,5.499999999999949374e-04,4.500000000000059508e-04,4.500000000000059508e-04,4.399999999999959499e-04,4.500000000000059508e-04,4.699999999999704414e-04,4.399999999999959499e-04,4.200000000000314593e-04,3.199999999999869615e-04,2.499999999999724665e-04,1.300000000000189893e-04,1.200000000000089884e-04,1.899999999999679723e-04,3.000000000000224709e-04,4.700000000000259526e-04,6.299999999999639222e-04,7.900000000000129141e-04,9.000000000000119016e-04,9.099999999999663913e-04,8.700000000000374101e-04,7.399999999999629097e-04,7.000000000000339284e-04,5.299999999999749356e-04,4.700000000000259526e-04,3.900000000000014566e-04,2.699999999999924682e-04,2.300000000000079758e-04,1.499999999999834799e-04,1.300000000000189893e-04,8.999999999997898570e-05,8.000000000002449596e-05,2.999999999997449152e-05,-4.999999999999449329e-05,-1.900000000000234834e-04,-3.599999999999714539e-04,-5.600000000000049383e-04,-8.000000000000229150e-04,-9.599999999999608846e-04,-1.140000000000029878e-03,-1.290000000000013358e-03,-1.390000000000002345e-03,-1.499999999999945821e-03,-1.490000000000046843e-03,-1.569999999999960316e-03,-1.490000000000046843e-03,-1.519999999999965823e-03,-1.489999999999991331e-03,-1.360000000000027853e-03,-1.329999999999997851e-03,-1.199999999999978861e-03,-1.130000000000019877e-03,-1.019999999999965379e-03,-9.700000000000263967e-04,-9.100000000000219025e-04,-9.299999999999863931e-04,-1.010000000000010889e-03,-1.019999999999965379e-03,-1.120000000000009877e-03,-1.219999999999998863e-03,-1.209999999999988862e-03,-1.329999999999997851e-03,-1.300000000000023359e-03,-1.359999999999972342e-03,-1.439999999999996838e-03,-1.450000000000006839e-03,-1.450000000000006839e-03,-1.360000000000027853e-03,-1.259999999999983356e-03,-1.010000000000010889e-03,-8.799999999999918998e-04,-6.099999999999994316e-04,-3.199999999999869615e-04,-4.000000000004000356e-05,2.600000000000379785e-04,6.099999999999994316e-04,9.099999999999663913e-04,1.310000000000033360e-03,1.780000000000003801e-03,2.170000000000005258e-03,2.679999999999960192e-03,3.070000000000017160e-03,3.639999999999976588e-03,4.140000000000032543e-03,4.649999999999987477e-03,5.580000000000029381e-03,6.239999999999967795e-03,7.419999999999982165e-03,8.250000000000035083e-03,9.620000000000017426e-03,1.074999999999998179e-02,1.151999999999997470e-02,1.292000000000004256e-02,1.321999999999995401e-02,1.438000000000000389e-02,1.468000000000002636e-02,1.500999999999996781e-02,1.527000000000000579e-02,1.445000000000001839e-02,1.434999999999997389e-02,1.307000000000002604e-02,1.268000000000002458e-02,1.149000000000000021e-02,1.056000000000001382e-02,1.001999999999991786e-02,8.520000000000083062e-03,7.809999999999983622e-03,6.730000000000013749e-03,5.619999999999958362e-03,4.510000000000013998e-03,3.480000000000038618e-03,2.409999999999912212e-03,1.120000000000009877e-03,2.500000000000834888e-04,-8.000000000000229150e-04,-1.840000000000063807e-03,-2.479999999999926708e-03,-3.160000000000051656e-03,-3.669999999999951079e-03,-3.759999999999985576e-03,-4.200000000000092548e-03,-4.199999999999981526e-03,-4.369999999999985008e-03,-4.340000000000010516e-03,-4.410000000000025011e-03,-4.419999999999979501e-03,-4.290000000000016023e-03,-4.390000000000005009e-03,-4.179999999999961524e-03,-4.299999999999970512e-03,-4.249999999999976019e-03,-4.170000000000007034e-03,-4.180000000000072546e-03,-4.109999999999947029e-03,-4.130000000000022542e-03,-3.979999999999983551e-03,-4.070000000000018048e-03,-3.869999999999984563e-03,-3.850000000000020073e-03,-3.840000000000010072e-03,-3.579999999999972093e-03,-3.530000000000033111e-03,-3.309999999999979625e-03,-3.180000000000016147e-03,-2.769999999999994689e-03,-2.689999999999970193e-03,-2.320000000000044249e-03,-1.909999999999967280e-03,-1.730000000000009308e-03,-1.300000000000023359e-03,-9.099999999999663913e-04,-5.700000000000149392e-04,-2.499999999999724665e-04,3.099999999999769607e-04,6.200000000000094325e-04,9.799999999999808864e-04,1.390000000000002345e-03,1.790000000000013802e-03,2.120000000000010765e-03,2.539999999999986713e-03,2.759999999999984688e-03,3.020000000000022666e-03,3.350000000000019629e-03,3.459999999999963105e-03,3.659999999999996589e-03,3.720000000000001084e-03,3.910000000000024567e-03,3.809999999999980069e-03,4.039999999999988045e-03,3.850000000000020073e-03,3.879999999999994564e-03,3.789999999999960067e-03,3.600000000000047606e-03,3.589999999999982094e-03,3.369999999999984119e-03,3.269999999999995133e-03,2.950000000000008171e-03,2.970000000000028173e-03,2.770000000000050200e-03,2.589999999999981206e-03,2.579999999999915694e-03,2.439999999999997726e-03,2.270000000000105267e-03,2.149999999999985256e-03,2.089999999999925251e-03,1.870000000000038298e-03,1.879999999999992788e-03,1.650000000000040323e-03,1.499999999999945821e-03,1.410000000000022347e-03,1.290000000000013358e-03,1.090000000000035385e-03,9.399999999999408828e-04,9.400000000000519051e-04,7.300000000000084199e-04,5.699999999999594280e-04,4.399999999999959499e-04,3.199999999999869615e-04,9.000000000003449685e-05,9.999999999954489738e-06,-9.999999999998898659e-05,-3.199999999999869615e-04,-2.800000000000579803e-04,-4.199999999999759481e-04,-6.999999999999229061e-04,-8.100000000000884270e-04,-8.399999999999518963e-04,-9.700000000000263967e-04,-1.249999999999973355e-03,-1.249999999999973355e-03,-1.500000000000056843e-03,-1.610000000000000320e-03,-1.639999999999974811e-03,-1.680000000000014815e-03,-1.669999999999949303e-03,-1.910000000000078302e-03,-1.849999999999907274e-03,-1.900000000000012790e-03,-1.950000000000007283e-03,-2.300000000000079758e-03,-2.199999999999979750e-03,-2.329999999999943228e-03,-2.390000000000003233e-03,-2.249999999999974243e-03,-2.230000000000065263e-03,-2.219999999999999751e-03,-2.279999999999948734e-03,-2.120000000000010765e-03,-2.190000000000025260e-03,-2.210000000000045262e-03,-2.229999999999954241e-03,-2.140000000000030767e-03,-2.209999999999934239e-03,-2.280000000000059757e-03,-2.239999999999964242e-03,-2.240000000000019753e-03,-2.340000000000008740e-03,-2.329999999999998739e-03,-2.259999999999984244e-03,-2.350000000000018741e-03,-2.289999999999958735e-03,-2.310000000000034248e-03,-2.219999999999999751e-03,-2.209999999999989750e-03,-2.130000000000020766e-03,-2.179999999999959748e-03,-2.030000000000031779e-03,-1.979999999999981775e-03,-1.879999999999992788e-03,-1.890000000000002789e-03,-1.829999999999998295e-03,-1.540000000000041336e-03,-1.610000000000000320e-03,-1.499999999999945821e-03,-1.330000000000053362e-03,-1.159999999999994369e-03,-1.009999999999955378e-03,-8.500000000000174083e-04,-5.800000000000249401e-04,-2.499999999999724665e-04,7.000000000001449507e-05,4.099999999999659472e-04,8.299999999999974065e-04,1.350000000000017852e-03,1.840000000000008296e-03,2.239999999999964242e-03,2.670000000000005702e-03,3.480000000000038618e-03,3.919999999999979057e-03,4.610000000000002984e-03,4.730000000000011973e-03,5.479999999999984883e-03,5.620000000000013873e-03,6.079999999999974314e-03,5.899999999999960831e-03,6.269999999999997797e-03,6.110000000000059828e-03,6.269999999999997797e-03,5.789999999999961844e-03,5.860000000000087361e-03,5.859999999999976339e-03,5.879999999999996341e-03,5.879999999999996341e-03,5.780000000000007354e-03,5.639999999999978364e-03,5.310000000000036913e-03,4.459999999999908482e-03,3.210000000000046150e-03,2.059999999999950759e-03,9.400000000000519051e-04,1.799999999999579714e-04,-4.299999999999304379e-04,-5.200000000000759570e-04,2.000000000002000178e-05,6.599999999999939249e-04,1.390000000000002345e-03,2.010000000000067288e-03,2.279999999999948734e-03,2.510000000000012221e-03,2.290000000000014246e-03,1.889999999999947278e-03,1.219999999999998863e-03,6.900000000000794387e-04,3.499999999999614531e-04,-2.999999999997449152e-05,-2.800000000000579803e-04,-5.100000000000104450e-04,-5.799999999999139177e-04,-5.500000000000504485e-04,-6.399999999999739231e-04,-9.799999999999808864e-04,-9.400000000000519051e-04,-9.500000000000063949e-04,-6.300000000000194333e-04,-6.399999999999739231e-04,-4.199999999999759481e-04,-3.699999999999814548e-04,-3.699999999999814548e-04,-4.600000000000159517e-04,-7.000000000000339284e-04,-1.079999999999969873e-03,-1.330000000000053362e-03,-1.460000000000016840e-03,-1.159999999999938858e-03,-9.900000000000463984e-04,-5.499999999999394262e-04,-3.699999999999814548e-04,-1.300000000000745004e-04,9.999999999998898659e-05,1.300000000000745004e-04,1.999999999990897948e-05,7.000000000001449507e-05,-1.599999999999379696e-04,0.000000000000000000e+00,-8.000000000008000711e-05,-9.999999999998898659e-05,-7.999999999996898481e-05,1.299999999999634781e-04,3.000000000008551382e-05,3.599999999999159428e-04,6.000000000000449418e-04,9.500000000000063949e-04,1.059999999999949871e-03,1.500000000000056843e-03,1.759999999999983800e-03,2.049999999999996270e-03,2.299999999999968736e-03,2.690000000000081215e-03,2.939999999999942659e-03,3.190000000000026148e-03,3.340000000000009628e-03,3.360000000000029630e-03,3.519999999999967599e-03,3.549999999999942091e-03,3.670000000000062101e-03,3.599999999999936584e-03,3.800000000000025580e-03,3.879999999999994564e-03,3.700000000000036593e-03,3.730000000000011084e-03,3.730000000000011084e-03,3.989999999999938041e-03,3.940000000000054570e-03,4.000000000000003553e-03,4.359999999999919496e-03,4.190000000000027036e-03,4.349999999999965006e-03,4.200000000000092548e-03,4.329999999999945004e-03,3.950000000000009059e-03,4.040000000000043556e-03,3.799999999999914557e-03,3.900000000000014566e-03,3.570000000000073115e-03,3.869999999999929052e-03,3.700000000000036593e-03,3.530000000000033111e-03,3.560000000000007603e-03,3.340000000000009628e-03,3.259999999999929621e-03,3.280000000000060645e-03,2.829999999999999183e-03,2.659999999999995701e-03,2.629999999999910187e-03,2.290000000000014246e-03,2.130000000000076277e-03,1.809999999999978293e-03,1.229999999999953353e-03,9.600000000000719069e-04,1.069999999999904361e-03,6.200000000000649436e-04,2.299999999999524647e-04,-2.000000000002000178e-05,-1.999999999990897948e-05,-3.900000000000014566e-04,-3.500000000000724754e-04
-1.549999999999954192e-04,-1.190000000000010494e-04,-2.499999999999724665e-05,-2.200000000000118527e-05,8.999999999995123012e-06,1.370000000000051732e-04,1.679999999999945426e-04,2.380000000000020988e-04,3.620000000000012097e-04,4.890000000000033209e-04,7.129999999999983573e-04,8.559999999999956533e-04,1.131000000000000061e-03,1.446000000000002839e-03,1.681000000000001937e-03,2.022999999999997023e-03,2.309999999999999554e-03,2.516999999999998405e-03,2.850000000000005307e-03,2.940999999999999170e-03,3.161999999999998145e-03,3.393999999999994244e-03,3.329000000000012505e-03,3.504999999999994231e-03,3.541000000000002479e-03,3.373000000000000997e-03,3.477999999999994984e-03,3.254000000000006887e-03,3.117999999999995775e-03,3.090999999999996528e-03,2.811000000000007937e-03,2.689999999999997948e-03,2.589999999999995084e-03,2.310000000000006493e-03,2.360000000000000986e-03,2.259999999999998122e-03,2.159999999999995257e-03,2.290000000000000369e-03,2.159999999999995257e-03,2.219999999999999751e-03,2.210000000000003628e-03,1.980000000000009530e-03,2.009999999999984022e-03,1.790000000000013802e-03,1.569999999999988072e-03,1.409999999999994591e-03,1.100000000000017630e-03,8.999999999999841460e-04,6.099999999999994316e-04,3.400000000000069633e-04,9.999999999998898659e-05,-2.099999999999879741e-04,-4.500000000000059508e-04,-7.699999999999929123e-04,-9.899999999999908873e-04,-1.320000000000015605e-03,-1.579999999999998073e-03,-1.700000000000007061e-03,-1.929999999999987281e-03,-1.989999999999991775e-03,-2.010000000000011777e-03,-2.040000000000000147e-03,-1.960000000000003406e-03,-1.899999999999998912e-03,-1.829999999999998295e-03,-1.649999999999998690e-03,-1.579999999999998073e-03,-1.460000000000002962e-03,-1.259999999999997233e-03,-1.180000000000000493e-03,-1.030000000000003135e-03,-9.300000000000002709e-04,-8.299999999999974065e-04,-6.999999999999922951e-04,-6.600000000000078026e-04,-5.799999999999971845e-04,-5.099999999999965672e-04,-4.800000000000081979e-04,-4.399999999999959499e-04,-4.200000000000037037e-04,-3.999999999999975797e-04,-3.800000000000053335e-04,-3.899999999999875788e-04,-4.100000000000075806e-04,-4.200000000000037037e-04,-4.699999999999981970e-04,-4.519999999999940732e-04,-5.010000000000014442e-04,-5.239999999999966906e-04,-5.280000000000006910e-04,-5.620000000000069384e-04,-5.269999999999996909e-04,-5.259999999999986908e-04,-4.929999999999934435e-04,-4.419999999999979501e-04,-3.880000000000133342e-04,-3.099999999999908384e-04,-2.450000000000090994e-04,-1.549999999999884803e-04,-5.800000000000249401e-05,2.399999999999624656e-05,1.479999999999953575e-04,2.430000000000070992e-04,3.719999999999973328e-04,5.040000000000044444e-04,6.349999999999966782e-04,7.759999999999989129e-04,9.539999999999965175e-04,1.065000000000010383e-03,1.289999999999999480e-03,1.369999999999996221e-03,1.619999999999996443e-03,1.789999999999999925e-03,1.890000000000002789e-03,2.110000000000000764e-03,2.239999999999991998e-03,2.370000000000010987e-03,2.579999999999998961e-03,2.570000000000002838e-03,2.779999999999990812e-03,2.880000000000007554e-03,2.860000000000001430e-03,3.000000000000002665e-03,2.970000000000000417e-03,3.030000000000004912e-03,3.079999999999999405e-03,2.899999999999985922e-03,2.939999999999998170e-03,2.810000000000006937e-03,2.640000000000003455e-03,2.569999999999988960e-03,2.379999999999993232e-03,2.350000000000018741e-03,2.269999999999994245e-03,2.149999999999985256e-03,2.230000000000009752e-03,2.260000000000011999e-03,2.369999999999983231e-03,2.689999999999997948e-03,2.810000000000006937e-03,3.250000000000002887e-03,3.569999999999989848e-03,3.799999999999997824e-03,4.320000000000018270e-03,4.640000000000005231e-03,5.190000000000000169e-03,5.779999999999979599e-03,6.019999999999997575e-03,6.760000000000015996e-03,7.190000000000001945e-03,7.419999999999982165e-03,8.160000000000000586e-03,8.190000000000002833e-03,8.729999999999987770e-03,8.940000000000003499e-03,8.690000000000031033e-03,9.060000000000012488e-03,8.749999999999980016e-03,8.620000000000016538e-03,8.619999999999961027e-03,7.890000000000008118e-03,7.800000000000029132e-03,7.239999999999968683e-03,6.649999999999989253e-03,6.240000000000023306e-03,5.460000000000020393e-03,4.969999999999974438e-03,4.520000000000023999e-03,3.659999999999996589e-03,3.369999999999984119e-03,2.749999999999974687e-03,2.410000000000023235e-03,2.029999999999976268e-03,1.640000000000030322e-03,1.429999999999986837e-03,1.180000000000014371e-03,9.399999999999963940e-04,8.400000000000074074e-04,6.200000000000094325e-04,5.299999999999749356e-04,3.699999999999814548e-04,2.300000000000079758e-04,9.000000000003449685e-05,-4.999999999999449329e-05,-2.400000000000179767e-04,-3.600000000000269651e-04,-5.099999999999549338e-04,-6.700000000000039257e-04,-8.100000000000329159e-04,-9.399999999999963940e-04,-1.070000000000015383e-03,-1.099999999999989875e-03,-1.219999999999998863e-03,-1.309999999999977849e-03,-1.260000000000038867e-03,-1.409999999999966835e-03,-1.329999999999997851e-03,-1.400000000000012346e-03,-1.410000000000022347e-03,-1.349999999999962341e-03,-1.360000000000027853e-03,-1.349999999999962341e-03,-1.340000000000007851e-03,-1.340000000000007851e-03,-1.290000000000013358e-03,-1.290000000000013358e-03,-1.219999999999998863e-03,-1.219999999999998863e-03,-1.189999999999968860e-03,-1.109999999999999876e-03,-1.090000000000035385e-03,-9.899999999999908873e-04,-9.399999999999963940e-04,-8.699999999999818989e-04,-8.199999999999874056e-04,-7.500000000000284217e-04,-7.099999999999884182e-04,-5.999999999999894307e-04,-5.800000000000249401e-04,-4.500000000000059508e-04,-4.699999999999704414e-04,-4.600000000000159517e-04,-3.799999999999914557e-04,-3.699999999999814548e-04,-3.100000000000324718e-04,-3.500000000000169642e-04,-2.899999999999569589e-04,-2.900000000000124700e-04,-3.199999999999869615e-04,-3.000000000000224709e-04,-3.599999999999714539e-04,-3.299999999999969624e-04,-4.400000000000514611e-04,-4.599999999999604405e-04,-5.400000000000404476e-04,-5.999999999999894307e-04,-6.899999999999684164e-04,-7.699999999999929123e-04,-8.400000000000074074e-04,-9.899999999999908873e-04,-1.050000000000050893e-03,-1.139999999999974367e-03,-1.249999999999973355e-03,-1.400000000000012346e-03,-1.540000000000041336e-03,-1.549999999999995826e-03,-1.749999999999973799e-03,-1.740000000000019309e-03,-1.859999999999972786e-03,-1.970000000000027285e-03,-1.939999999999997282e-03,-2.049999999999996270e-03,-1.979999999999981775e-03,-2.049999999999996270e-03,-2.070000000000016271e-03,-2.000000000000001776e-03,-2.060000000000006271e-03,-1.959999999999961773e-03,-2.010000000000011777e-03,-1.970000000000027285e-03,-1.879999999999992788e-03,-1.929999999999987281e-03,-1.840000000000008296e-03,-1.800000000000023803e-03,-1.789999999999958291e-03,-1.690000000000024816e-03,-1.709999999999989306e-03,-1.599999999999990319e-03,-1.580000000000025828e-03,-1.560000000000005826e-03,-1.429999999999986837e-03,-1.419999999999976836e-03,-1.280000000000003357e-03,-1.250000000000028866e-03,-1.159999999999994369e-03,-1.010000000000010889e-03,-9.399999999999963940e-04,-7.899999999999574030e-04,-6.800000000000139266e-04,-5.700000000000149392e-04,-4.299999999999859490e-04,-3.199999999999869615e-04,-1.900000000000234834e-04,-1.000000000001000089e-05,2.099999999999879741e-04,4.700000000000259526e-04,8.099999999999774047e-04,1.100000000000045386e-03,1.549999999999995826e-03,1.919999999999977280e-03,2.259999999999984244e-03,2.740000000000020197e-03,2.879999999999993676e-03,3.159999999999996145e-03,3.170000000000006146e-03,3.060000000000007159e-03,2.979999999999982663e-03,2.599999999999991207e-03,2.420000000000033236e-03,2.000000000000001776e-03,1.589999999999980318e-03,1.259999999999983356e-03,8.500000000000174083e-04,6.400000000000294342e-04,4.899999999999904432e-04,3.799999999999914557e-04,4.099999999999659472e-04,3.900000000000014566e-04,4.200000000000314593e-04,4.399999999999959499e-04,4.600000000000159517e-04,4.299999999999859490e-04,3.699999999999814548e-04,3.299999999999969624e-04,2.699999999999924682e-04,2.199999999999979750e-04,2.700000000000479794e-04,3.799999999999914557e-04,5.399999999999849365e-04,6.800000000000139266e-04,8.299999999999974065e-04,8.799999999999918998e-04,9.199999999999763922e-04,8.700000000000374101e-04,7.199999999999984190e-04,6.499999999999839240e-04,5.200000000000204459e-04,4.199999999999759481e-04,3.799999999999914557e-04,2.800000000000024691e-04,2.600000000000379785e-04,1.799999999999579714e-04,1.800000000000134825e-04,1.499999999999834799e-04,1.099999999999989875e-04,7.000000000001449507e-05,-1.000000000001000089e-05,-1.899999999999679723e-04,-3.500000000000169642e-04,-5.600000000000049383e-04,-7.800000000000029132e-04,-9.399999999999963940e-04,-1.159999999999994369e-03,-1.290000000000013358e-03,-1.400000000000012346e-03,-1.489999999999991331e-03,-1.479999999999981330e-03,-1.570000000000015827e-03,-1.500000000000001332e-03,-1.500000000000001332e-03,-1.459999999999961329e-03,-1.360000000000027853e-03,-1.290000000000013358e-03,-1.170000000000004370e-03,-1.099999999999989875e-03,-9.799999999999808864e-04,-9.200000000000319034e-04,-8.799999999999918998e-04,-8.599999999999718980e-04,-9.399999999999963940e-04,-1.010000000000010889e-03,-1.120000000000009877e-03,-1.180000000000014371e-03,-1.229999999999953353e-03,-1.310000000000033360e-03,-1.299999999999967848e-03,-1.370000000000037854e-03,-1.379999999999992344e-03,-1.400000000000012346e-03,-1.450000000000006839e-03,-1.339999999999952340e-03,-1.329999999999997851e-03,-1.070000000000015383e-03,-8.400000000000074074e-04,-6.400000000000294342e-04,-3.499999999999614531e-04,-3.000000000003000267e-05,2.500000000000279776e-04,6.399999999999739231e-04,9.800000000000363976e-04,1.299999999999967848e-03,1.760000000000039311e-03,2.179999999999959748e-03,2.730000000000010196e-03,3.149999999999986144e-03,3.750000000000031086e-03,4.129999999999967031e-03,4.560000000000008491e-03,5.390000000000005898e-03,6.039999999999989821e-03,7.209999999999994191e-03,8.130000000000026095e-03,9.459999999999968434e-03,1.059000000000004382e-02,1.136999999999999122e-02,1.272000000000000908e-02,1.296999999999998154e-02,1.417000000000001592e-02,1.445999999999997288e-02,1.484000000000001984e-02,1.518999999999998129e-02,1.436999999999999389e-02,1.425999999999999490e-02,1.297000000000003705e-02,1.254999999999995008e-02,1.136999999999999122e-02,1.062000000000007383e-02,9.989999999999943370e-03,8.570000000000077556e-03,7.969999999999921592e-03,6.720000000000059259e-03,5.749999999999921840e-03,4.630000000000022986e-03,3.489999999999993108e-03,2.480000000000037730e-03,1.240000000000018865e-03,2.900000000000124700e-04,-7.400000000000739320e-04,-1.709999999999989306e-03,-2.460000000000017728e-03,-3.099999999999991651e-03,-3.579999999999916582e-03,-3.830000000000000071e-03,-4.230000000000067040e-03,-4.099999999999992539e-03,-4.410000000000025011e-03,-4.419999999999979501e-03,-4.319999999999990514e-03,-4.449999999999953992e-03,-4.280000000000061533e-03,-4.390000000000005009e-03,-4.190000000000027036e-03,-4.339999999999899494e-03,-4.150000000000098055e-03,-4.199999999999981526e-03,-4.209999999999936016e-03,-4.029999999999978044e-03,-4.170000000000062546e-03,-3.929999999999989058e-03,-4.049999999999998046e-03,-3.919999999999979057e-03,-3.900000000000014566e-03,-3.730000000000011084e-03,-3.649999999999986589e-03,-3.560000000000007603e-03,-3.230000000000010640e-03,-3.159999999999996145e-03,-2.869999999999983675e-03,-2.620000000000011209e-03,-2.340000000000008740e-03,-1.939999999999997282e-03,-1.699999999999979305e-03,-1.300000000000023359e-03,-9.600000000000163958e-04,-5.499999999999949374e-04,-2.199999999999979750e-04,2.300000000000079758e-04,6.300000000000194333e-04,9.699999999999708855e-04,1.300000000000023359e-03,1.809999999999978293e-03,2.070000000000016271e-03,2.460000000000017728e-03,2.739999999999964686e-03,3.049999999999997158e-03,3.200000000000036149e-03,3.439999999999998614e-03,3.659999999999996589e-03,3.629999999999966587e-03,3.900000000000014566e-03,3.800000000000025580e-03,3.959999999999963549e-03,3.850000000000020073e-03,3.869999999999984563e-03,3.780000000000005578e-03,3.650000000000042100e-03,3.579999999999916582e-03,3.269999999999995133e-03,3.300000000000080647e-03,3.000000000000002665e-03,2.919999999999922657e-03,2.810000000000090203e-03,2.679999999999904681e-03,2.480000000000037730e-03,2.439999999999997726e-03,2.369999999999983231e-03,2.049999999999996270e-03,2.130000000000076277e-03,1.950000000000007283e-03,1.829999999999998295e-03,1.649999999999929301e-03,1.610000000000000320e-03,1.419999999999976836e-03,1.280000000000058868e-03,1.219999999999998863e-03,9.299999999999863931e-04,8.500000000000174083e-04,7.699999999999374012e-04,6.300000000000194333e-04,3.900000000000014566e-04,3.000000000000779821e-04,1.899999999999124611e-04,-2.999999999997449152e-05,-1.400000000000289901e-04,-1.700000000000034817e-04,-3.699999999999814548e-04,-5.299999999999194245e-04,-6.300000000000194333e-04,-7.300000000000084199e-04,-9.500000000000063949e-04,-9.700000000000263967e-04,-1.179999999999958860e-03,-1.319999999999987850e-03,-1.439999999999996838e-03,-1.500000000000056843e-03,-1.569999999999960316e-03,-1.720000000000054818e-03,-1.699999999999923794e-03,-1.880000000000103810e-03,-1.879999999999992788e-03,-1.989999999999936264e-03,-2.079999999999970761e-03,-2.150000000000096279e-03,-2.289999999999903224e-03,-2.360000000000028741e-03,-2.310000000000034248e-03,-2.209999999999934239e-03,-2.390000000000003233e-03,-2.180000000000070770e-03,-2.229999999999954241e-03,-2.099999999999990763e-03,-2.260000000000039755e-03,-2.059999999999950759e-03,-2.200000000000090772e-03,-2.149999999999985256e-03,-2.289999999999958735e-03,-2.230000000000009752e-03,-2.309999999999978737e-03,-2.300000000000024247e-03,-2.329999999999998739e-03,-2.269999999999994245e-03,-2.219999999999999751e-03,-2.400000000000013234e-03,-2.269999999999994245e-03,-2.280000000000004245e-03,-2.189999999999969749e-03,-2.290000000000014246e-03,-2.149999999999985256e-03,-2.080000000000026272e-03,-1.910000000000022791e-03,-2.009999999999956266e-03,-1.930000000000042792e-03,-1.809999999999978293e-03,-1.699999999999979305e-03,-1.650000000000040323e-03,-1.729999999999953797e-03,-1.420000000000032347e-03,-1.329999999999997851e-03,-1.230000000000008864e-03,-1.099999999999989875e-03,-8.400000000000074074e-04,-6.099999999999994316e-04,-2.699999999999924682e-04,-6.000000000000449418e-05,2.900000000000124700e-04,8.199999999999874056e-04,1.209999999999988862e-03,1.659999999999994813e-03,2.190000000000025260e-03,2.630000000000021210e-03,3.349999999999964118e-03,3.740000000000021085e-03,4.409999999999969500e-03,4.780000000000006466e-03,5.390000000000005898e-03,5.530000000000034888e-03,6.019999999999969820e-03,5.940000000000000835e-03,6.199999999999983302e-03,6.099999999999994316e-03,6.099999999999994316e-03,5.940000000000056346e-03,5.970000000000030838e-03,5.809999999999981846e-03,5.950000000000010836e-03,5.809999999999981846e-03,6.039999999999934310e-03,5.740000000000078373e-03,5.189999999999916902e-03,4.530000000000033999e-03,3.360000000000029630e-03,2.240000000000019753e-03,9.399999999999408828e-04,-9.999999999954489738e-06,-5.399999999999849365e-04,-4.000000000000669687e-04,-5.999999999994898303e-05,5.499999999999394262e-04,1.120000000000009877e-03,1.960000000000072795e-03,2.279999999999948734e-03,2.530000000000032223e-03,2.349999999999963229e-03,1.990000000000047287e-03,1.419999999999976836e-03,8.700000000000374101e-04,1.799999999999579714e-04,-9.000000000003449685e-05,-2.299999999999524647e-04,-3.699999999999814548e-04,-5.200000000000759570e-04,-7.399999999999629097e-04,-8.799999999999918998e-04,-9.500000000000063949e-04,-9.299999999999863931e-04,-9.600000000000719069e-04,-7.899999999999574030e-04,-7.199999999999429079e-04,-4.900000000001014655e-04,-3.799999999999359446e-04,-2.800000000000579803e-04,-5.299999999999194245e-04,-7.900000000000684253e-04,-1.029999999999975380e-03,-1.260000000000038867e-03,-1.349999999999962341e-03,-1.179999999999958860e-03,-1.000000000000000888e-03,-6.200000000000649436e-04,-2.099999999999324629e-04,-9.999999999998898659e-05,-6.000000000006000533e-05,6.000000000006000533e-05,1.499999999999834799e-04,5.999999999994898303e-05,-7.000000000001449507e-05,-3.999999999992898125e-05,-1.400000000000289901e-04,-2.100000000000434852e-04,9.999999999998898659e-05,-1.999999999990897948e-05,1.099999999999434763e-04,3.600000000000269651e-04,6.599999999999939249e-04,8.700000000000374101e-04,1.209999999999933351e-03,1.439999999999996838e-03,1.709999999999989306e-03,2.120000000000010765e-03,2.419999999999977724e-03,2.730000000000010196e-03,2.900000000000013678e-03,3.170000000000006146e-03,3.330000000000055138e-03,3.469999999999973106e-03,3.560000000000007603e-03,3.630000000000022098e-03,3.730000000000011084e-03,3.599999999999936584e-03,3.830000000000000071e-03,3.569999999999962093e-03,3.760000000000096598e-03,3.730000000000011084e-03,3.869999999999929052e-03,3.929999999999989058e-03,4.090000000000038050e-03,3.929999999999989058e-03,4.340000000000010516e-03,4.090000000000038050e-03,4.289999999999905000e-03,4.240000000000021529e-03,4.180000000000072546e-03,4.069999999999907025e-03,4.230000000000067040e-03,3.649999999999931077e-03,4.160000000000052545e-03,3.539999999999987601e-03,3.639999999999976588e-03,3.670000000000062101e-03,3.699999999999925571e-03,3.520000000000078622e-03,3.499999999999947597e-03,3.260000000000040643e-03,3.170000000000006146e-03,2.929999999999988169e-03,2.809999999999979181e-03,2.510000000000012221e-03,2.219999999999999751e-03,2.079999999999970761e-03,1.680000000000014815e-03,1.340000000000007851e-03,1.170000000000004370e-03,9.599999999999608846e-04,7.700000000000484235e-04,3.699999999999814548e-04,5.999999999994898303e-05,-1.199999999998979661e-04,-2.900000000000124700e-04,-4.700000000000814637e-04
-1.410000000000022347e-04,-1.539999999999944191e-04,-6.200000000000649436e-05,-1.999999999995061284e-06,3.999999999999837019e-05,6.199999999999955547e-05,1.159999999999980491e-04,2.279999999999990368e-04,3.740000000000062719e-04,4.519999999999940732e-04,6.580000000000058025e-04,8.089999999999972213e-04,1.099999999999996814e-03,1.366000000000006098e-03,1.575999999999994072e-03,1.931000000000002159e-03,2.169000000000004258e-03,2.363999999999998047e-03,2.690000000000004887e-03,2.778999999999989812e-03,2.960000000000004294e-03,3.180000000000002269e-03,3.135999999999999899e-03,3.348999999999990873e-03,3.340000000000009628e-03,3.184999999999993392e-03,3.311000000000008381e-03,3.124999999999988898e-03,3.016000000000004788e-03,2.960000000000004294e-03,2.706000000000000072e-03,2.648999999999998578e-03,2.540000000000000591e-03,2.250000000000001998e-03,2.309999999999992615e-03,2.240000000000005875e-03,2.159999999999995257e-03,2.240000000000005875e-03,2.110000000000000764e-03,2.189999999999997504e-03,2.140000000000003011e-03,1.939999999999997282e-03,1.940000000000011160e-03,1.729999999999981553e-03,1.510000000000011333e-03,1.319999999999987850e-03,1.049999999999995381e-03,8.200000000000151612e-04,5.699999999999871836e-04,2.800000000000024691e-04,4.000000000001224798e-05,-2.300000000000079758e-04,-4.899999999999904432e-04,-7.800000000000029132e-04,-1.019999999999993134e-03,-1.310000000000005604e-03,-1.549999999999995826e-03,-1.650000000000012568e-03,-1.869999999999996665e-03,-1.939999999999997282e-03,-1.920000000000005036e-03,-1.960000000000003406e-03,-1.889999999999988911e-03,-1.810000000000006048e-03,-1.759999999999997677e-03,-1.579999999999998073e-03,-1.530000000000003579e-03,-1.399999999999998468e-03,-1.210000000000002740e-03,-1.149999999999998246e-03,-9.900000000000047651e-04,-9.099999999999941469e-04,-8.000000000000090372e-04,-6.800000000000000488e-04,-6.399999999999878009e-04,-5.600000000000049383e-04,-4.900000000000043210e-04,-4.699999999999981970e-04,-4.299999999999998268e-04,-3.999999999999975797e-04,-3.920000000000034568e-04,-3.539999999999932090e-04,-3.820000000000073337e-04,-3.959999999999935794e-04,-3.950000000000064571e-04,-4.320000000000018270e-04,-4.519999999999940732e-04,-5.079999999999945670e-04,-5.090000000000094449e-04,-5.160000000000025677e-04,-5.569999999999880602e-04,-5.380000000000106919e-04,-5.209999999999936904e-04,-5.010000000000014442e-04,-4.360000000000058273e-04,-4.089999999999927027e-04,-3.240000000000048397e-04,-2.579999999999943450e-04,-1.700000000000034817e-04,-8.900000000000574119e-05,8.000000000008000711e-06,1.209999999999961107e-04,1.970000000000027285e-04,3.490000000000020863e-04,4.569999999999990736e-04,5.899999999999933076e-04,7.250000000000034195e-04,8.940000000000059011e-04,9.909999999999918874e-04,1.225000000000003864e-03,1.291000000000000481e-03,1.541000000000000703e-03,1.719999999999999307e-03,1.810000000000006048e-03,2.019999999999994023e-03,2.170000000000005258e-03,2.279999999999990368e-03,2.520000000000008344e-03,2.509999999999998344e-03,2.729999999999996319e-03,2.850000000000005307e-03,2.809999999999993059e-03,3.000000000000002665e-03,2.970000000000000417e-03,3.039999999999987157e-03,3.090000000000009406e-03,2.890000000000003677e-03,2.950000000000008171e-03,2.799999999999996936e-03,2.589999999999981206e-03,2.530000000000004468e-03,2.299999999999996492e-03,2.250000000000001998e-03,2.180000000000015259e-03,2.069999999999988516e-03,2.159999999999995257e-03,2.189999999999997504e-03,2.310000000000006493e-03,2.600000000000018963e-03,2.709999999999990195e-03,3.090000000000009406e-03,3.379999999999994120e-03,3.610000000000002096e-03,4.119999999999984786e-03,4.450000000000009504e-03,4.979999999999984439e-03,5.600000000000021627e-03,5.830000000000001847e-03,6.539999999999990266e-03,6.959999999999993969e-03,7.290000000000018687e-03,7.910000000000000364e-03,7.949999999999984857e-03,8.499999999999979794e-03,8.720000000000005524e-03,8.500000000000007550e-03,8.869999999999989004e-03,8.550000000000002043e-03,8.480000000000043059e-03,8.439999999999947544e-03,7.760000000000044640e-03,7.629999999999970139e-03,7.159999999999999698e-03,6.539999999999990266e-03,6.170000000000008811e-03,5.410000000000025899e-03,4.909999999999969944e-03,4.360000000000030518e-03,3.610000000000002096e-03,3.249999999999975131e-03,2.690000000000025704e-03,2.319999999999988738e-03,2.000000000000001776e-03,1.610000000000000320e-03,1.409999999999966835e-03,1.160000000000049880e-03,9.499999999999508837e-04,8.400000000000074074e-04,6.300000000000194333e-04,5.600000000000049383e-04,3.699999999999814548e-04,2.800000000000024691e-04,9.000000000003449685e-05,0.000000000000000000e+00,-2.000000000000334843e-04,-3.099999999999769607e-04,-5.000000000000004441e-04,-5.999999999999894307e-04,-7.400000000000184208e-04,-8.100000000000329159e-04,-9.399999999999963940e-04,-9.199999999999763922e-04,-1.049999999999995381e-03,-1.089999999999979874e-03,-1.090000000000035385e-03,-1.199999999999978861e-03,-1.200000000000034373e-03,-1.219999999999998863e-03,-1.259999999999983356e-03,-1.269999999999993356e-03,-1.290000000000013358e-03,-1.319999999999987850e-03,-1.300000000000023359e-03,-1.409999999999966835e-03,-1.290000000000013358e-03,-1.410000000000022347e-03,-1.319999999999987850e-03,-1.290000000000013358e-03,-1.249999999999973355e-03,-1.209999999999988862e-03,-1.099999999999989875e-03,-1.030000000000030891e-03,-9.500000000000063949e-04,-9.299999999999863931e-04,-7.900000000000129141e-04,-7.599999999999829114e-04,-6.700000000000039257e-04,-5.899999999999794298e-04,-5.200000000000204459e-04,-4.600000000000159517e-04,-4.500000000000059508e-04,-4.399999999999959499e-04,-3.499999999999614531e-04,-3.299999999999969624e-04,-3.100000000000324718e-04,-2.999999999999669598e-04,-2.600000000000379785e-04,-2.800000000000024691e-04,-2.499999999999724665e-04,-2.900000000000124700e-04,-2.900000000000124700e-04,-3.199999999999869615e-04,-3.699999999999814548e-04,-4.200000000000314593e-04,-5.000000000000004441e-04,-5.799999999999694289e-04,-6.400000000000294342e-04,-7.099999999999884182e-04,-8.299999999999974065e-04,-8.900000000000019007e-04,-1.000000000000000888e-03,-1.130000000000019877e-03,-1.239999999999963354e-03,-1.370000000000037854e-03,-1.489999999999991331e-03,-1.529999999999975824e-03,-1.719999999999999307e-03,-1.719999999999999307e-03,-1.829999999999998295e-03,-1.920000000000032792e-03,-1.909999999999967280e-03,-2.000000000000001776e-03,-1.960000000000017284e-03,-2.029999999999976268e-03,-2.020000000000021778e-03,-1.960000000000017284e-03,-2.039999999999986269e-03,-1.919999999999977280e-03,-1.950000000000007283e-03,-1.950000000000007283e-03,-1.840000000000008296e-03,-1.900000000000012790e-03,-1.769999999999993801e-03,-1.789999999999958291e-03,-1.760000000000039311e-03,-1.659999999999994813e-03,-1.689999999999969305e-03,-1.580000000000025828e-03,-1.549999999999995826e-03,-1.529999999999975824e-03,-1.380000000000047855e-03,-1.409999999999966835e-03,-1.280000000000003357e-03,-1.209999999999988862e-03,-1.140000000000029878e-03,-1.000000000000000888e-03,-9.199999999999763922e-04,-7.599999999999829114e-04,-6.500000000000394351e-04,-5.600000000000049383e-04,-3.999999999999559464e-04,-3.100000000000324718e-04,-1.599999999999934808e-04,2.999999999997449152e-05,2.400000000000179767e-04,5.100000000000104450e-04,8.699999999999818989e-04,1.099999999999989875e-03,1.570000000000015827e-03,1.920000000000032792e-03,2.239999999999964242e-03,2.720000000000000195e-03,2.810000000000034692e-03,3.069999999999961648e-03,3.060000000000007159e-03,2.910000000000023679e-03,2.819999999999989182e-03,2.439999999999997726e-03,2.219999999999999751e-03,1.809999999999978293e-03,1.390000000000002345e-03,1.060000000000005382e-03,7.000000000000339284e-04,4.799999999999804423e-04,4.000000000000114575e-04,2.900000000000124700e-04,3.399999999999514522e-04,3.500000000000169642e-04,4.000000000000114575e-04,4.500000000000059508e-04,4.199999999999759481e-04,4.299999999999859490e-04,4.100000000000214584e-04,3.500000000000169642e-04,3.099999999999769607e-04,3.100000000000324718e-04,3.900000000000014566e-04,4.899999999999904432e-04,5.999999999999894307e-04,6.999999999999784173e-04,8.200000000000429168e-04,8.499999999999618971e-04,8.600000000000274092e-04,8.199999999999874056e-04,6.200000000000094325e-04,5.499999999999949374e-04,4.100000000000214584e-04,3.299999999999969624e-04,2.899999999999569589e-04,2.000000000000334843e-04,1.899999999999679723e-04,1.599999999999934808e-04,1.600000000000489919e-04,1.599999999999934808e-04,1.399999999999734790e-04,9.999999999998898659e-05,2.000000000002000178e-05,-1.300000000000189893e-04,-3.199999999999869615e-04,-4.899999999999904432e-04,-7.699999999999929123e-04,-9.000000000000119016e-04,-1.099999999999989875e-03,-1.280000000000003357e-03,-1.350000000000017852e-03,-1.450000000000006839e-03,-1.439999999999996838e-03,-1.489999999999991331e-03,-1.439999999999996838e-03,-1.450000000000006839e-03,-1.419999999999976836e-03,-1.329999999999997851e-03,-1.260000000000038867e-03,-1.119999999999954365e-03,-1.040000000000040892e-03,-9.399999999999963940e-04,-8.599999999999718980e-04,-8.199999999999874056e-04,-8.000000000000229150e-04,-8.900000000000019007e-04,-9.700000000000263967e-04,-1.059999999999949871e-03,-1.160000000000049880e-03,-1.159999999999994369e-03,-1.249999999999973355e-03,-1.240000000000018865e-03,-1.299999999999967848e-03,-1.380000000000047855e-03,-1.409999999999966835e-03,-1.500000000000001332e-03,-1.369999999999982343e-03,-1.320000000000043361e-03,-1.060000000000005382e-03,-8.899999999999463896e-04,-6.500000000000394351e-04,-3.499999999999614531e-04,-6.000000000000449418e-05,2.299999999999524647e-04,5.700000000000149392e-04,8.799999999999918998e-04,1.310000000000033360e-03,1.789999999999958291e-03,2.200000000000035261e-03,2.720000000000000195e-03,2.939999999999998170e-03,3.429999999999988614e-03,3.780000000000005578e-03,4.240000000000021529e-03,5.099999999999993427e-03,5.809999999999981846e-03,6.979999999999986215e-03,7.870000000000043627e-03,9.159999999999945963e-03,1.023000000000001686e-02,1.100000000000000977e-02,1.229999999999997762e-02,1.259000000000004560e-02,1.377000000000000446e-02,1.403999999999999693e-02,1.439999999999996838e-02,1.464999999999999636e-02,1.381999999999999895e-02,1.369000000000003547e-02,1.250999999999996559e-02,1.211000000000000965e-02,1.101999999999997426e-02,1.024000000000008237e-02,9.679999999999910898e-03,8.269999999999999574e-03,7.680000000000020144e-03,6.469999999999975770e-03,5.530000000000034888e-03,4.390000000000005009e-03,3.410000000000024123e-03,2.360000000000028741e-03,1.139999999999918856e-03,2.100000000000434852e-04,-7.800000000000029132e-04,-1.730000000000009308e-03,-2.449999999999952216e-03,-3.030000000000088178e-03,-3.569999999999962093e-03,-3.759999999999985576e-03,-4.010000000000069065e-03,-4.059999999999952536e-03,-4.179999999999961524e-03,-4.210000000000047038e-03,-4.220000000000001528e-03,-4.249999999999976019e-03,-4.090000000000038050e-03,-4.209999999999936016e-03,-4.010000000000069065e-03,-4.099999999999992539e-03,-3.959999999999963549e-03,-3.950000000000009059e-03,-4.020000000000023554e-03,-3.869999999999984563e-03,-3.939999999999999059e-03,-3.799999999999970068e-03,-3.850000000000020073e-03,-3.690000000000026592e-03,-3.739999999999965574e-03,-3.620000000000012097e-03,-3.450000000000008615e-03,-3.359999999999974118e-03,-3.120000000000011653e-03,-3.039999999999987157e-03,-2.720000000000000195e-03,-2.510000000000012221e-03,-2.180000000000015259e-03,-1.859999999999972786e-03,-1.570000000000015827e-03,-1.170000000000004370e-03,-8.599999999999718980e-04,-5.000000000000004441e-04,-8.000000000002449596e-05,2.300000000000079758e-04,6.700000000000039257e-04,1.039999999999985381e-03,1.350000000000017852e-03,1.840000000000008296e-03,2.079999999999970761e-03,2.530000000000032223e-03,2.729999999999954685e-03,3.030000000000032667e-03,3.289999999999959623e-03,3.450000000000008615e-03,3.620000000000012097e-03,3.649999999999986589e-03,3.860000000000030074e-03,3.819999999999990070e-03,3.979999999999983551e-03,3.819999999999990070e-03,3.910000000000024567e-03,3.769999999999995577e-03,3.530000000000033111e-03,3.549999999999997602e-03,3.259999999999929621e-03,3.130000000000077165e-03,2.969999999999917151e-03,2.880000000000104698e-03,2.659999999999995701e-03,2.610000000000001208e-03,2.489999999999992220e-03,2.319999999999988738e-03,2.290000000000014246e-03,2.119999999999899742e-03,2.030000000000087290e-03,1.859999999999972786e-03,1.789999999999958291e-03,1.590000000000091340e-03,1.499999999999945821e-03,1.399999999999956835e-03,1.210000000000044373e-03,1.129999999999964366e-03,1.000000000000000888e-03,8.900000000000574119e-04,6.899999999999684164e-04,6.199999999999539213e-04,4.200000000000869704e-04,2.599999999999269562e-04,1.700000000000034817e-04,3.000000000008551382e-05,-1.700000000000034817e-04,-1.600000000000489919e-04,-2.999999999999669598e-04,-4.600000000000159517e-04,-6.200000000000649436e-04,-6.799999999999029043e-04,-8.500000000000174083e-04,-9.100000000000774136e-04,-1.129999999999964366e-03,-1.199999999999978861e-03,-1.360000000000027853e-03,-1.449999999999951328e-03,-1.520000000000076845e-03,-1.629999999999909299e-03,-1.650000000000040323e-03,-1.809999999999978293e-03,-1.750000000000029310e-03,-2.020000000000021778e-03,-1.959999999999961773e-03,-2.110000000000056275e-03,-2.109999999999945253e-03,-2.219999999999999751e-03,-2.210000000000045262e-03,-2.079999999999970761e-03,-2.190000000000025260e-03,-2.089999999999925251e-03,-2.200000000000090772e-03,-2.039999999999930758e-03,-2.130000000000020766e-03,-2.089999999999980762e-03,-2.090000000000036273e-03,-2.079999999999970761e-03,-2.180000000000015259e-03,-2.159999999999995257e-03,-2.180000000000015259e-03,-2.180000000000015259e-03,-2.269999999999994245e-03,-2.249999999999974243e-03,-2.190000000000025260e-03,-2.269999999999994245e-03,-2.189999999999969749e-03,-2.310000000000034248e-03,-2.110000000000000764e-03,-2.149999999999985256e-03,-2.079999999999970761e-03,-2.080000000000026272e-03,-1.950000000000007283e-03,-1.919999999999977280e-03,-1.929999999999987281e-03,-1.800000000000023803e-03,-1.730000000000009308e-03,-1.549999999999995826e-03,-1.680000000000014815e-03,-1.450000000000006839e-03,-1.379999999999992344e-03,-1.170000000000004370e-03,-1.079999999999969873e-03,-8.400000000000074074e-04,-6.300000000000194333e-04,-2.099999999999879741e-04,-8.999999999997898570e-05,2.900000000000124700e-04,7.499999999999729106e-04,1.190000000000024372e-03,1.629999999999964810e-03,2.180000000000015259e-03,2.560000000000006715e-03,3.269999999999995133e-03,3.589999999999982094e-03,4.290000000000016023e-03,4.610000000000002984e-03,5.239999999999966906e-03,5.400000000000015898e-03,5.790000000000017355e-03,5.689999999999972857e-03,5.960000000000020837e-03,5.909999999999970832e-03,5.910000000000026343e-03,5.539999999999989377e-03,5.720000000000058371e-03,5.569999999999963869e-03,5.619999999999958362e-03,5.620000000000069384e-03,5.629999999999912852e-03,5.560000000000009379e-03,4.979999999999984439e-03,4.280000000000061533e-03,3.000000000000002665e-03,1.929999999999987281e-03,7.399999999999629097e-04,-7.999999999996898481e-05,-7.199999999999429079e-04,-6.099999999999994316e-04,-2.900000000000124700e-04,3.900000000000014566e-04,1.049999999999995381e-03,1.719999999999943796e-03,2.060000000000061782e-03,2.309999999999923226e-03,2.160000000000050768e-03,1.900000000000012790e-03,1.379999999999936833e-03,9.900000000000463984e-04,4.800000000000359535e-04,1.399999999999179678e-04,-9.999999999998898659e-05,-3.400000000000069633e-04,-4.499999999999504396e-04,-5.899999999999794298e-04,-8.299999999999974065e-04,-1.000000000000000888e-03,-9.299999999999863931e-04,-9.800000000000919087e-04,-8.299999999999974065e-04,-7.800000000000029132e-04,-6.399999999999739231e-04,-5.499999999999394262e-04,-4.600000000000159517e-04,-6.500000000000394351e-04,-8.099999999999774047e-04,-1.099999999999989875e-03,-1.260000000000038867e-03,-1.290000000000013358e-03,-1.029999999999975380e-03,-8.700000000000374101e-04,-5.799999999999139177e-04,-1.900000000000234834e-04,-1.400000000000289901e-04,2.999999999997449152e-05,4.000000000004000356e-05,5.999999999994898303e-05,-9.999999999954489738e-06,-5.999999999994898303e-05,-1.600000000000489919e-04,-1.700000000000034817e-04,-1.200000000000089884e-04,-1.099999999999434763e-04,2.999999999997449152e-05,7.000000000001449507e-05,4.699999999999704414e-04,4.999999999999449329e-04,8.600000000000829203e-04,1.049999999999995381e-03,1.410000000000022347e-03,1.589999999999980318e-03,2.039999999999930758e-03,2.420000000000088747e-03,2.629999999999910187e-03,2.870000000000039186e-03,3.129999999999966143e-03,3.250000000000086153e-03,3.359999999999918607e-03,3.500000000000058620e-03,3.560000000000007603e-03,3.709999999999991083e-03,3.510000000000013110e-03,3.679999999999905569e-03,3.510000000000013110e-03,3.700000000000036593e-03,3.530000000000033111e-03,3.859999999999974563e-03,3.769999999999940066e-03,4.050000000000109068e-03,3.909999999999969056e-03,4.179999999999961524e-03,3.959999999999963549e-03,4.310000000000036025e-03,4.149999999999987033e-03,4.170000000000007034e-03,3.950000000000009059e-03,3.909999999999969056e-03,3.790000000000071090e-03,3.699999999999925571e-03,3.600000000000047606e-03,3.510000000000013110e-03,3.630000000000022098e-03,3.510000000000013110e-03,3.409999999999913101e-03,3.290000000000015135e-03,3.280000000000060645e-03,3.099999999999991651e-03,2.950000000000008171e-03,2.649999999999930189e-03,2.520000000000077733e-03,2.000000000000001776e-03,1.879999999999992788e-03,1.859999999999972786e-03,1.319999999999987850e-03,1.020000000000020890e-03,8.199999999999318945e-04,7.200000000000539302e-04,3.600000000000269651e-04,1.200000000000089884e-04,-2.600000000000379785e-04,-4.800000000000359535e-04,-1.499999999999834799e-04
-1.400000000000012346e-04,-1.159999999999980491e-04,-4.600000000000437073e-05,-7.000000000000061728e-06,3.600000000000130873e-05,1.120000000000009877e-04,1.630000000000034199e-04,2.009999999999997899e-04,3.610000000000002096e-04,4.510000000000000120e-04,6.369999999999986784e-04,7.939999999999960978e-04,1.057000000000002382e-03,1.313000000000001666e-03,1.538999999999998702e-03,1.840000000000001357e-03,2.107999999999998764e-03,2.283000000000000307e-03,2.579999999999998961e-03,2.687999999999995948e-03,2.878000000000005554e-03,3.063999999999997281e-03,3.045000000000006035e-03,3.222999999999989762e-03,3.221000000000001640e-03,3.078999999999998405e-03,3.181000000000003269e-03,3.015000000000003788e-03,2.896999999999996800e-03,2.856999999999998430e-03,2.617000000000008209e-03,2.493999999999996220e-03,2.423999999999995603e-03,2.140000000000003011e-03,2.170000000000005258e-03,2.129999999999993010e-03,2.009999999999997899e-03,2.119999999999996887e-03,2.030000000000004023e-03,2.060000000000006271e-03,2.059999999999992393e-03,1.850000000000004419e-03,1.850000000000004419e-03,1.669999999999990936e-03,1.430000000000000715e-03,1.299999999999995604e-03,1.010000000000010889e-03,7.899999999999851585e-04,5.700000000000149392e-04,2.800000000000024691e-04,6.000000000000449418e-05,-2.000000000000057288e-04,-4.399999999999959499e-04,-7.199999999999984190e-04,-9.900000000000186429e-04,-1.229999999999981108e-03,-1.520000000000007456e-03,-1.590000000000008074e-03,-1.839999999999994418e-03,-1.909999999999995035e-03,-1.890000000000002789e-03,-1.950000000000007283e-03,-1.860000000000000542e-03,-1.799999999999996048e-03,-1.740000000000005431e-03,-1.549999999999995826e-03,-1.519999999999993578e-03,-1.380000000000006222e-03,-1.199999999999992739e-03,-1.130000000000006000e-03,-9.799999999999947642e-04,-8.800000000000057776e-04,-7.859999999999950360e-04,-6.830000000000030491e-04,-6.280000000000035554e-04,-5.580000000000029381e-04,-4.679999999999961968e-04,-4.620000000000040741e-04,-4.159999999999997033e-04,-3.999999999999975797e-04,-3.819999999999934559e-04,-3.449999999999980860e-04,-3.830000000000083338e-04,-3.699999999999953326e-04,-3.920000000000034568e-04,-4.209999999999908260e-04,-4.340000000000038272e-04,-4.750000000000031974e-04,-4.809999999999953202e-04,-5.080000000000084448e-04,-5.290000000000016911e-04,-5.299999999999888134e-04,-4.830000000000111982e-04,-4.939999999999944436e-04,-4.369999999999929496e-04,-3.900000000000014566e-04,-3.200000000000008393e-04,-2.390000000000030989e-04,-1.820000000000016049e-04,-6.799999999999861711e-05,-8.999999999995123012e-06,1.109999999999999876e-04,1.869999999999927276e-04,3.329999999999999627e-04,4.269999999999968265e-04,5.549999999999999378e-04,6.639999999999979252e-04,8.690000000000086544e-04,9.399999999999963940e-04,1.162999999999997369e-03,1.220999999999999863e-03,1.469999999999999085e-03,1.628000000000004444e-03,1.710000000000003184e-03,1.934999999999992282e-03,2.060000000000006271e-03,2.180000000000001381e-03,2.369999999999997109e-03,2.390000000000003233e-03,2.599999999999991207e-03,2.710000000000004072e-03,2.700000000000007949e-03,2.869999999999997553e-03,2.839999999999995306e-03,2.940000000000012048e-03,2.959999999999990417e-03,2.810000000000006937e-03,2.809999999999979181e-03,2.680000000000015703e-03,2.469999999999999973e-03,2.420000000000005480e-03,2.199999999999979750e-03,2.140000000000003011e-03,2.079999999999998517e-03,1.960000000000017284e-03,2.049999999999996270e-03,2.129999999999993010e-03,2.230000000000009752e-03,2.530000000000004468e-03,2.619999999999983453e-03,2.989999999999992664e-03,3.260000000000012887e-03,3.470000000000000862e-03,3.980000000000011307e-03,4.279999999999978266e-03,4.769999999999996465e-03,5.340000000000011404e-03,5.580000000000001625e-03,6.310000000000010045e-03,6.709999999999993747e-03,7.009999999999988463e-03,7.720000000000004636e-03,7.690000000000002389e-03,8.230000000000015081e-03,8.519999999999999796e-03,8.280000000000009575e-03,8.699999999999985523e-03,8.390000000000008562e-03,8.339999999999958558e-03,8.290000000000019575e-03,7.670000000000010143e-03,7.570000000000021156e-03,7.069999999999965201e-03,6.489999999999995772e-03,6.130000000000024318e-03,5.379999999999995897e-03,4.900000000000015454e-03,4.389999999999949498e-03,3.600000000000047606e-03,3.249999999999975131e-03,2.680000000000015703e-03,2.329999999999998739e-03,1.989999999999991775e-03,1.610000000000000320e-03,1.400000000000012346e-03,1.189999999999968860e-03,9.399999999999963940e-04,8.700000000000374101e-04,6.599999999999939249e-04,5.600000000000049383e-04,3.900000000000014566e-04,2.399999999999624656e-04,1.200000000000089884e-04,-1.999999999996449063e-05,-2.000000000000334843e-04,-3.500000000000169642e-04,-4.599999999999604405e-04,-5.900000000000349409e-04,-7.199999999999984190e-04,-7.800000000000029132e-04,-8.900000000000019007e-04,-8.900000000000019007e-04,-1.000000000000000888e-03,-1.079999999999969873e-03,-1.010000000000010889e-03,-1.199999999999978861e-03,-1.170000000000004370e-03,-1.240000000000018865e-03,-1.290000000000013358e-03,-1.239999999999963354e-03,-1.310000000000033360e-03,-1.339999999999952340e-03,-1.350000000000017852e-03,-1.390000000000002345e-03,-1.350000000000017852e-03,-1.379999999999992344e-03,-1.359999999999972342e-03,-1.310000000000033360e-03,-1.290000000000013358e-03,-1.159999999999994369e-03,-1.189999999999968860e-03,-1.030000000000030891e-03,-1.010000000000010889e-03,-9.299999999999863931e-04,-7.999999999999674039e-04,-8.100000000000329159e-04,-6.499999999999839240e-04,-5.999999999999894307e-04,-5.499999999999949374e-04,-5.300000000000304468e-04,-4.199999999999759481e-04,-4.600000000000159517e-04,-3.799999999999914557e-04,-3.600000000000269651e-04,-3.099999999999769607e-04,-3.000000000000224709e-04,-2.999999999999669598e-04,-2.199999999999979750e-04,-3.000000000000224709e-04,-2.800000000000024691e-04,-2.800000000000024691e-04,-3.099999999999769607e-04,-3.699999999999814548e-04,-4.400000000000514611e-04,-4.699999999999704414e-04,-5.600000000000049383e-04,-6.099999999999994316e-04,-7.199999999999984190e-04,-8.000000000000229150e-04,-9.199999999999763922e-04,-1.000000000000000888e-03,-1.130000000000019877e-03,-1.230000000000008864e-03,-1.369999999999982343e-03,-1.479999999999981330e-03,-1.520000000000021334e-03,-1.680000000000014815e-03,-1.709999999999989306e-03,-1.840000000000008296e-03,-1.899999999999957279e-03,-1.920000000000032792e-03,-1.989999999999991775e-03,-1.929999999999987281e-03,-1.989999999999991775e-03,-2.010000000000011777e-03,-1.950000000000007283e-03,-1.979999999999981775e-03,-1.900000000000012790e-03,-1.929999999999987281e-03,-1.900000000000012790e-03,-1.809999999999978293e-03,-1.860000000000028297e-03,-1.759999999999983800e-03,-1.750000000000029310e-03,-1.729999999999953797e-03,-1.620000000000010321e-03,-1.650000000000040323e-03,-1.539999999999985825e-03,-1.519999999999965823e-03,-1.480000000000036842e-03,-1.369999999999982343e-03,-1.350000000000017852e-03,-1.239999999999963354e-03,-1.170000000000004370e-03,-1.100000000000045386e-03,-9.599999999999608846e-04,-8.700000000000374101e-04,-7.199999999999984190e-04,-6.099999999999994316e-04,-5.199999999999649347e-04,-3.700000000000369660e-04,-2.499999999999724665e-04,-1.099999999999989875e-04,3.999999999998449240e-05,2.400000000000179767e-04,5.299999999999749356e-04,8.500000000000174083e-04,1.139999999999974367e-03,1.560000000000005826e-03,1.920000000000032792e-03,2.269999999999994245e-03,2.680000000000015703e-03,2.799999999999969180e-03,3.099999999999991651e-03,3.070000000000017160e-03,2.939999999999998170e-03,2.869999999999983675e-03,2.489999999999992220e-03,2.300000000000024247e-03,1.890000000000002789e-03,1.489999999999991331e-03,1.180000000000014371e-03,7.999999999999674039e-04,5.700000000000149392e-04,4.500000000000059508e-04,3.699999999999814548e-04,3.900000000000014566e-04,3.800000000000469669e-04,4.299999999999859490e-04,4.299999999999859490e-04,4.399999999999959499e-04,4.200000000000314593e-04,3.699999999999814548e-04,2.999999999999669598e-04,2.300000000000079758e-04,2.300000000000079758e-04,2.500000000000279776e-04,3.599999999999714539e-04,4.899999999999904432e-04,6.200000000000094325e-04,7.699999999999929123e-04,8.100000000000329159e-04,8.099999999999774047e-04,7.900000000000129141e-04,6.399999999999739231e-04,5.499999999999949374e-04,4.500000000000059508e-04,3.299999999999969624e-04,2.900000000000124700e-04,2.000000000000334843e-04,1.799999999999579714e-04,1.400000000000289901e-04,1.200000000000089884e-04,6.999999999995898392e-05,8.000000000002449596e-05,2.999999999997449152e-05,-3.999999999998449240e-05,-1.700000000000034817e-04,-3.799999999999914557e-04,-5.000000000000004441e-04,-7.900000000000129141e-04,-9.299999999999863931e-04,-1.120000000000009877e-03,-1.230000000000008864e-03,-1.349999999999962341e-03,-1.430000000000042348e-03,-1.419999999999976836e-03,-1.479999999999981330e-03,-1.439999999999996838e-03,-1.420000000000032347e-03,-1.409999999999966835e-03,-1.280000000000003357e-03,-1.240000000000018865e-03,-1.109999999999999876e-03,-1.029999999999975380e-03,-9.100000000000219025e-04,-8.199999999999874056e-04,-8.000000000000229150e-04,-7.999999999999674039e-04,-8.700000000000374101e-04,-9.500000000000063949e-04,-1.060000000000005382e-03,-1.129999999999964366e-03,-1.159999999999994369e-03,-1.219999999999998863e-03,-1.209999999999988862e-03,-1.280000000000003357e-03,-1.360000000000027853e-03,-1.400000000000012346e-03,-1.450000000000006839e-03,-1.359999999999972342e-03,-1.309999999999977849e-03,-1.070000000000015383e-03,-8.900000000000019007e-04,-6.499999999999839240e-04,-3.600000000000269651e-04,-8.999999999997898570e-05,2.299999999999524647e-04,5.700000000000149392e-04,8.900000000000019007e-04,1.329999999999997851e-03,1.780000000000003801e-03,2.159999999999995257e-03,2.620000000000011209e-03,2.879999999999993676e-03,3.319999999999989626e-03,3.690000000000026592e-03,4.139999999999977032e-03,5.000000000000004441e-03,5.670000000000008367e-03,6.869999999999987228e-03,7.780000000000009130e-03,9.080000000000032490e-03,1.017999999999996685e-02,1.095000000000001528e-02,1.233000000000000762e-02,1.264999999999999458e-02,1.377000000000000446e-02,1.412999999999997591e-02,1.452999999999998737e-02,1.480000000000003535e-02,1.396999999999998243e-02,1.391999999999998794e-02,1.269999999999998908e-02,1.234000000000001762e-02,1.119999999999998774e-02,1.045000000000001483e-02,9.820000000000050910e-03,8.459999999999912035e-03,7.840000000000069136e-03,6.599999999999939249e-03,5.610000000000003872e-03,4.500000000000059508e-03,3.419999999999978613e-03,2.390000000000003233e-03,1.240000000000018865e-03,1.799999999999579714e-04,-8.299999999999974065e-04,-1.709999999999989306e-03,-2.489999999999992220e-03,-3.110000000000057163e-03,-3.619999999999956586e-03,-3.789999999999960067e-03,-4.140000000000032543e-03,-4.070000000000018048e-03,-4.319999999999990514e-03,-4.269999999999996021e-03,-4.290000000000016023e-03,-4.310000000000036025e-03,-4.179999999999961524e-03,-4.240000000000021529e-03,-4.079999999999972538e-03,-4.170000000000007034e-03,-4.019999999999968043e-03,-4.060000000000008047e-03,-4.060000000000008047e-03,-3.929999999999989058e-03,-4.020000000000023554e-03,-3.809999999999980069e-03,-3.950000000000009059e-03,-3.720000000000001084e-03,-3.769999999999995577e-03,-3.709999999999991083e-03,-3.460000000000018616e-03,-3.459999999999963105e-03,-3.160000000000051656e-03,-3.059999999999951648e-03,-2.760000000000040199e-03,-2.539999999999986713e-03,-2.209999999999989750e-03,-1.869999999999982787e-03,-1.630000000000020322e-03,-1.149999999999984368e-03,-8.799999999999918998e-04,-5.000000000000004441e-04,-1.400000000000289901e-04,2.800000000000024691e-04,6.900000000000239275e-04,1.019999999999965379e-03,1.400000000000012346e-03,1.790000000000013802e-03,2.089999999999980762e-03,2.549999999999996714e-03,2.709999999999990195e-03,3.080000000000027160e-03,3.329999999999999627e-03,3.409999999999968612e-03,3.710000000000046594e-03,3.709999999999991083e-03,3.909999999999969056e-03,3.850000000000020073e-03,4.079999999999972538e-03,3.850000000000020073e-03,3.939999999999999059e-03,3.800000000000025580e-03,3.629999999999966587e-03,3.620000000000012097e-03,3.269999999999995133e-03,3.240000000000020641e-03,2.989999999999992664e-03,2.879999999999993676e-03,2.699999999999980194e-03,2.620000000000066720e-03,2.519999999999966711e-03,2.340000000000008740e-03,2.309999999999923226e-03,2.200000000000090772e-03,2.019999999999910756e-03,1.850000000000018296e-03,1.829999999999998295e-03,1.620000000000065832e-03,1.510000000000011333e-03,1.429999999999931326e-03,1.240000000000018865e-03,1.110000000000055387e-03,9.799999999999808864e-04,8.899999999999463896e-04,7.200000000000539302e-04,6.499999999999284128e-04,4.600000000000159517e-04,1.800000000000689937e-04,1.899999999999124611e-04,4.000000000004000356e-05,-1.299999999999634781e-04,-2.600000000000379785e-04,-2.699999999999924682e-04,-4.199999999999759481e-04,-6.599999999999939249e-04,-6.700000000000594369e-04,-8.099999999999774047e-04,-1.009999999999955378e-03,-1.099999999999989875e-03,-1.260000000000038867e-03,-1.340000000000007851e-03,-1.500000000000056843e-03,-1.559999999999894804e-03,-1.640000000000085834e-03,-1.709999999999989306e-03,-1.819999999999932783e-03,-1.790000000000069313e-03,-1.979999999999981775e-03,-1.979999999999981775e-03,-2.160000000000050768e-03,-2.109999999999945253e-03,-2.199999999999979750e-03,-2.210000000000045262e-03,-2.159999999999995257e-03,-2.240000000000019753e-03,-2.099999999999990763e-03,-2.189999999999969749e-03,-2.099999999999990763e-03,-2.230000000000009752e-03,-2.090000000000036273e-03,-2.139999999999975255e-03,-2.120000000000010765e-03,-2.269999999999994245e-03,-2.130000000000020766e-03,-2.199999999999979750e-03,-2.290000000000014246e-03,-2.219999999999999751e-03,-2.269999999999994245e-03,-2.269999999999994245e-03,-2.329999999999998739e-03,-2.280000000000004245e-03,-2.280000000000004245e-03,-2.149999999999985256e-03,-2.280000000000004245e-03,-2.110000000000000764e-03,-2.049999999999996270e-03,-2.000000000000001776e-03,-1.970000000000027285e-03,-1.919999999999977280e-03,-1.799999999999968292e-03,-1.780000000000003801e-03,-1.630000000000020322e-03,-1.630000000000020322e-03,-1.489999999999991331e-03,-1.319999999999987850e-03,-1.250000000000028866e-03,-1.059999999999949871e-03,-8.100000000000329159e-04,-6.599999999999939249e-04,-3.099999999999769607e-04,-9.000000000003449685e-05,3.400000000000069633e-04,8.100000000000329159e-04,1.169999999999948859e-03,1.670000000000004814e-03,2.150000000000040767e-03,2.699999999999980194e-03,3.329999999999999627e-03,3.730000000000011084e-03,4.369999999999985008e-03,4.560000000000008491e-03,5.299999999999971401e-03,5.470000000000030393e-03,5.879999999999996341e-03,5.919999999999980833e-03,6.030000000000035332e-03,5.969999999999975326e-03,6.049999999999999822e-03,5.720000000000002860e-03,5.780000000000007354e-03,5.680000000000018368e-03,5.800000000000027356e-03,5.779999999999896332e-03,5.780000000000007354e-03,5.590000000000094893e-03,5.099999999999993427e-03,4.390000000000005009e-03,3.109999999999946141e-03,2.009999999999956266e-03,6.300000000000194333e-04,-9.999999999954489738e-06,-5.800000000000249401e-04,-5.899999999999794298e-04,-2.400000000000179767e-04,4.399999999999959499e-04,1.079999999999969873e-03,1.730000000000009308e-03,2.170000000000005258e-03,2.380000000000048743e-03,2.319999999999988738e-03,1.889999999999947278e-03,1.290000000000013358e-03,1.040000000000040892e-03,3.499999999999614531e-04,0.000000000000000000e+00,-1.999999999999779732e-04,-3.800000000000469669e-04,-4.499999999999504396e-04,-7.399999999999629097e-04,-7.599999999999829114e-04,-1.080000000000080895e-03,-9.799999999999808864e-04,-1.029999999999975380e-03,-7.399999999999629097e-04,-6.900000000000794387e-04,-5.800000000000249401e-04,-5.299999999999194245e-04,-5.000000000000559552e-04,-5.699999999999594280e-04,-8.000000000000229150e-04,-1.029999999999975380e-03,-1.310000000000033360e-03,-1.299999999999967848e-03,-1.099999999999989875e-03,-9.100000000000774136e-04,-6.299999999999084110e-04,-3.199999999999869615e-04,-1.000000000001000089e-04,-3.999999999992898125e-05,1.099999999999434763e-04,4.999999999999449329e-05,1.000000000006551204e-05,-4.000000000004000356e-05,-1.799999999999579714e-04,-1.300000000000745004e-04,-1.700000000000034817e-04,-1.899999999999124611e-04,7.000000000001449507e-05,8.999999999992347455e-05,3.699999999999814548e-04,5.900000000000904521e-04,8.099999999999774047e-04,1.039999999999929869e-03,1.390000000000002345e-03,1.760000000000094822e-03,2.109999999999945253e-03,2.349999999999963229e-03,2.610000000000001208e-03,2.960000000000073683e-03,3.170000000000006146e-03,3.269999999999995133e-03,3.399999999999958611e-03,3.569999999999962093e-03,3.730000000000011084e-03,3.630000000000022098e-03,3.610000000000002096e-03,3.680000000000016591e-03,3.619999999999956586e-03,3.690000000000082103e-03,3.679999999999905569e-03,3.900000000000014566e-03,3.929999999999989058e-03,3.960000000000074571e-03,3.969999999999918039e-03,4.220000000000001528e-03,4.180000000000072546e-03,4.249999999999976019e-03,4.240000000000021529e-03,4.259999999999930509e-03,4.020000000000023554e-03,4.079999999999972538e-03,3.890000000000060076e-03,3.769999999999940066e-03,3.640000000000087610e-03,3.719999999999945572e-03,3.369999999999984119e-03,3.700000000000036593e-03,3.369999999999984119e-03,3.400000000000069633e-03,3.429999999999933102e-03,3.240000000000020641e-03,2.850000000000019185e-03,2.639999999999975699e-03,2.560000000000006715e-03,2.210000000000045262e-03,2.029999999999976268e-03,1.619999999999954809e-03,1.280000000000058868e-03,1.299999999999967848e-03,8.099999999999774047e-04,6.000000000000449418e-04,4.600000000000159517e-04,5.999999999994898303e-05,-1.400000000000289901e-04,-2.900000000000124700e-04,-4.899999999999904432e-04
-1.620000000000024198e-04,-1.359999999999972342e-04,-3.700000000000230882e-05,-3.700000000000230882e-05,4.699999999999843192e-05,1.360000000000041731e-04,1.559999999999964193e-04,2.839999999999995306e-04,3.900000000000014566e-04,5.450000000000038147e-04,7.749999999999979128e-04,9.460000000000023945e-04,1.302999999999998604e-03,1.613999999999997381e-03,1.884999999999997788e-03,2.299000000000002431e-03,2.566999999999999837e-03,2.850000000000005307e-03,3.222000000000002640e-03,3.306999999999990503e-03,3.581000000000000849e-03,3.800999999999998824e-03,3.747000000000000330e-03,3.965999999999997305e-03,3.956000000000001182e-03,3.817000000000000948e-03,3.939999999999999059e-03,3.689999999999998836e-03,3.600000000000005973e-03,3.479999999999996985e-03,3.180000000000002269e-03,3.089999999999995528e-03,2.939999999999998170e-03,2.629999999999993454e-03,2.680000000000015703e-03,2.579999999999998961e-03,2.500000000000002220e-03,2.569999999999988960e-03,2.460000000000017728e-03,2.529999999999976712e-03,2.469999999999999973e-03,2.270000000000022000e-03,2.250000000000001998e-03,2.029999999999976268e-03,1.750000000000001554e-03,1.550000000000023581e-03,1.250000000000001110e-03,9.699999999999986411e-04,6.899999999999961720e-04,3.599999999999992095e-04,8.999999999997898570e-05,-2.199999999999979750e-04,-5.399999999999849365e-04,-8.700000000000096545e-04,-1.170000000000004370e-03,-1.489999999999991331e-03,-1.810000000000006048e-03,-1.909999999999995035e-03,-2.189999999999997504e-03,-2.280000000000004245e-03,-2.259999999999984244e-03,-2.320000000000016493e-03,-2.200000000000007505e-03,-2.159999999999995257e-03,-2.069999999999988516e-03,-1.849999999999990541e-03,-1.800000000000023803e-03,-1.649999999999984812e-03,-1.420000000000004592e-03,-1.360000000000000098e-03,-1.170000000000004370e-03,-1.049999999999995381e-03,-9.500000000000063949e-04,-7.999999999999951594e-04,-7.599999999999967892e-04,-6.499999999999978018e-04,-5.799999999999971845e-04,-5.600000000000049383e-04,-4.900000000000043210e-04,-4.699999999999981970e-04,-4.600000000000020739e-04,-4.299999999999998268e-04,-4.399999999999959499e-04,-4.500000000000059508e-04,-4.600000000000020739e-04,-5.099999999999965672e-04,-5.000000000000004441e-04,-5.599999999999910605e-04,-5.900000000000071854e-04,-6.000000000000033085e-04,-6.299999999999916778e-04,-6.099999999999994316e-04,-5.900000000000071854e-04,-5.599999999999910605e-04,-5.000000000000004441e-04,-4.400000000000098277e-04,-3.699999999999953326e-04,-2.800000000000024691e-04,-1.999999999999918510e-04,-5.000000000000837108e-05,2.000000000000612399e-05,1.599999999999934808e-04,2.700000000000063460e-04,4.099999999999937028e-04,5.799999999999971845e-04,7.000000000000061728e-04,8.900000000000019007e-04,1.049999999999995381e-03,1.219999999999998863e-03,1.439999999999996838e-03,1.550000000000009703e-03,1.799999999999996048e-03,2.020000000000007900e-03,2.119999999999996887e-03,2.379999999999993232e-03,2.529999999999990590e-03,2.670000000000005702e-03,2.920000000000005924e-03,2.909999999999995923e-03,3.150000000000013900e-03,3.250000000000002887e-03,3.220000000000000639e-03,3.389999999999976366e-03,3.329999999999999627e-03,3.380000000000021876e-03,3.419999999999978613e-03,3.180000000000016147e-03,3.239999999999992886e-03,3.079999999999999405e-03,2.900000000000013678e-03,2.849999999999991429e-03,2.659999999999995701e-03,2.629999999999993454e-03,2.610000000000001208e-03,2.469999999999999973e-03,2.590000000000008962e-03,2.599999999999991207e-03,2.689999999999997948e-03,2.970000000000000417e-03,3.070000000000017160e-03,3.559999999999979847e-03,3.970000000000001306e-03,4.270000000000023777e-03,4.869999999999985452e-03,5.250000000000004663e-03,5.799999999999999600e-03,6.429999999999991278e-03,6.590000000000012514e-03,7.489999999999996660e-03,7.970000000000004858e-03,8.269999999999999574e-03,9.089999999999986979e-03,9.039999999999992486e-03,9.610000000000007425e-03,9.830000000000005400e-03,9.539999999999992930e-03,9.910000000000029896e-03,9.499999999999952927e-03,9.390000000000009450e-03,9.280000000000010463e-03,8.460000000000023057e-03,8.379999999999998561e-03,7.739999999999969127e-03,7.110000000000005205e-03,6.620000000000014762e-03,5.809999999999981846e-03,5.230000000000012417e-03,4.709999999999991971e-03,3.869999999999984563e-03,3.500000000000003109e-03,2.879999999999993676e-03,2.480000000000037730e-03,2.139999999999975255e-03,1.730000000000009308e-03,1.510000000000011333e-03,1.230000000000008864e-03,1.029999999999975380e-03,8.500000000000174083e-04,6.899999999999684164e-04,5.400000000000404476e-04,4.099999999999659472e-04,2.000000000000334843e-04,1.099999999999989875e-04,-1.200000000000089884e-04,-2.500000000000279776e-04,-4.599999999999604405e-04,-5.200000000000204459e-04,-7.099999999999884182e-04,-7.800000000000029132e-04,-8.500000000000174083e-04,-9.699999999999708855e-04,-9.100000000000219025e-04,-1.029999999999975380e-03,-1.060000000000005382e-03,-1.090000000000035385e-03,-1.170000000000004370e-03,-1.239999999999963354e-03,-1.300000000000023359e-03,-1.409999999999966835e-03,-1.320000000000043361e-03,-1.610000000000000320e-03,-1.489999999999991331e-03,-1.610000000000000320e-03,-1.730000000000009308e-03,-1.589999999999980318e-03,-1.730000000000009308e-03,-1.610000000000000320e-03,-1.649999999999984812e-03,-1.539999999999985825e-03,-1.489999999999991331e-03,-1.330000000000053362e-03,-1.279999999999947846e-03,-1.150000000000039879e-03,-1.109999999999999876e-03,-9.299999999999863931e-04,-8.699999999999818989e-04,-7.900000000000129141e-04,-5.800000000000249401e-04,-6.299999999999639222e-04,-4.800000000000359535e-04,-5.099999999999549338e-04,-4.600000000000159517e-04,-3.900000000000014566e-04,-4.200000000000314593e-04,-3.199999999999869615e-04,-3.499999999999614531e-04,-2.900000000000124700e-04,-3.200000000000424727e-04,-3.299999999999969624e-04,-2.800000000000024691e-04,-3.499999999999614531e-04,-3.500000000000169642e-04,-4.199999999999759481e-04,-4.500000000000059508e-04,-5.200000000000204459e-04,-6.300000000000194333e-04,-6.899999999999684164e-04,-8.000000000000229150e-04,-9.099999999999663913e-04,-1.010000000000010889e-03,-1.120000000000009877e-03,-1.219999999999998863e-03,-1.350000000000017852e-03,-1.489999999999991331e-03,-1.599999999999990319e-03,-1.699999999999979305e-03,-1.850000000000018296e-03,-1.859999999999972786e-03,-2.030000000000031779e-03,-2.060000000000006271e-03,-2.110000000000000764e-03,-2.139999999999975255e-03,-2.120000000000010765e-03,-2.190000000000025260e-03,-2.199999999999979750e-03,-2.159999999999995257e-03,-2.190000000000025260e-03,-2.110000000000000764e-03,-2.139999999999975255e-03,-2.089999999999980762e-03,-2.040000000000041780e-03,-2.049999999999996270e-03,-1.929999999999987281e-03,-1.969999999999971774e-03,-1.900000000000012790e-03,-1.829999999999998295e-03,-1.819999999999988294e-03,-1.710000000000044817e-03,-1.709999999999989306e-03,-1.620000000000010321e-03,-1.529999999999975824e-03,-1.510000000000011333e-03,-1.359999999999972342e-03,-1.329999999999997851e-03,-1.200000000000034373e-03,-1.039999999999985381e-03,-9.600000000000163958e-04,-7.599999999999829114e-04,-6.499999999999839240e-04,-5.499999999999949374e-04,-3.800000000000469669e-04,-2.800000000000024691e-04,-1.399999999999734790e-04,8.000000000002449596e-05,2.800000000000024691e-04,6.199999999999539213e-04,9.800000000000363976e-04,1.319999999999987850e-03,1.829999999999998295e-03,2.199999999999979750e-03,2.599999999999991207e-03,3.080000000000027160e-03,3.209999999999990639e-03,3.520000000000023110e-03,3.519999999999967599e-03,3.340000000000009628e-03,3.250000000000030642e-03,2.890000000000003677e-03,2.679999999999960192e-03,2.219999999999999751e-03,1.760000000000039311e-03,1.419999999999976836e-03,9.799999999999808864e-04,7.400000000000184208e-04,5.800000000000249401e-04,4.899999999999904432e-04,5.000000000000004441e-04,4.799999999999804423e-04,5.100000000000104450e-04,5.199999999999649347e-04,5.000000000000004441e-04,4.300000000000414602e-04,3.799999999999914557e-04,2.699999999999924682e-04,1.599999999999934808e-04,1.400000000000289901e-04,1.700000000000034817e-04,2.999999999999669598e-04,4.899999999999904432e-04,6.400000000000294342e-04,8.400000000000074074e-04,9.199999999999763922e-04,9.199999999999763922e-04,9.100000000000219025e-04,7.599999999999829114e-04,6.500000000000394351e-04,5.699999999999594280e-04,4.300000000000414602e-04,3.699999999999814548e-04,2.599999999999824674e-04,2.000000000000334843e-04,1.099999999999989875e-04,1.099999999999989875e-04,6.000000000000449418e-05,6.999999999995898392e-05,-9.999999999954489738e-06,-1.099999999999989875e-04,-2.199999999999979750e-04,-4.600000000000159517e-04,-6.099999999999994316e-04,-8.799999999999918998e-04,-1.020000000000020890e-03,-1.269999999999993356e-03,-1.350000000000017852e-03,-1.529999999999975824e-03,-1.580000000000025828e-03,-1.560000000000005826e-03,-1.679999999999959304e-03,-1.600000000000045830e-03,-1.610000000000000320e-03,-1.599999999999990319e-03,-1.459999999999961329e-03,-1.430000000000042348e-03,-1.269999999999993356e-03,-1.199999999999978861e-03,-1.080000000000025384e-03,-1.009999999999955378e-03,-1.010000000000010889e-03,-9.800000000000363976e-04,-1.119999999999954365e-03,-1.150000000000039879e-03,-1.249999999999973355e-03,-1.310000000000033360e-03,-1.329999999999997851e-03,-1.409999999999966835e-03,-1.439999999999996838e-03,-1.549999999999995826e-03,-1.610000000000000320e-03,-1.640000000000030322e-03,-1.629999999999964810e-03,-1.460000000000016840e-03,-1.390000000000002345e-03,-1.120000000000009877e-03,-9.000000000000119016e-04,-6.599999999999939249e-04,-3.199999999999869615e-04,0.000000000000000000e+00,3.000000000000224709e-04,7.299999999999529088e-04,1.090000000000035385e-03,1.519999999999965823e-03,2.020000000000021778e-03,2.369999999999983231e-03,2.819999999999989182e-03,3.150000000000041656e-03,3.780000000000005578e-03,4.399999999999959499e-03,5.020000000000024443e-03,6.129999999999968807e-03,6.770000000000053753e-03,8.049999999999946088e-03,8.950000000000013500e-03,1.023000000000001686e-02,1.135999999999998122e-02,1.225000000000003864e-02,1.360999999999995547e-02,1.386000000000003896e-02,1.501999999999997781e-02,1.510000000000000231e-02,1.545000000000001927e-02,1.562999999999997724e-02,1.474999999999998535e-02,1.461000000000001187e-02,1.327999999999995850e-02,1.287000000000004807e-02,1.160000000000005471e-02,1.067999999999991179e-02,1.002000000000002888e-02,8.550000000000057554e-03,7.879999999999998117e-03,6.599999999999939249e-03,5.680000000000018368e-03,4.489999999999993996e-03,3.399999999999958611e-03,2.420000000000088747e-03,1.079999999999969873e-03,1.700000000000034817e-04,-8.000000000000229150e-04,-1.800000000000023803e-03,-2.549999999999941203e-03,-3.130000000000077165e-03,-3.689999999999971081e-03,-3.850000000000020073e-03,-4.170000000000007034e-03,-4.170000000000007034e-03,-4.419999999999979501e-03,-4.349999999999965006e-03,-4.349999999999965006e-03,-4.520000000000079510e-03,-4.229999999999956017e-03,-4.390000000000005009e-03,-4.229999999999956017e-03,-4.290000000000016023e-03,-4.180000000000072546e-03,-4.209999999999936016e-03,-4.199999999999981526e-03,-4.070000000000018048e-03,-4.180000000000072546e-03,-4.029999999999978044e-03,-4.120000000000012541e-03,-3.909999999999969056e-03,-3.970000000000029061e-03,-3.830000000000000071e-03,-3.659999999999996589e-03,-3.669999999999951079e-03,-3.310000000000035136e-03,-3.209999999999935127e-03,-2.950000000000008171e-03,-2.690000000000081215e-03,-2.329999999999943228e-03,-2.030000000000031779e-03,-1.780000000000003801e-03,-1.219999999999998863e-03,-1.000000000000000888e-03,-5.399999999999849365e-04,-1.899999999999679723e-04,2.199999999999979750e-04,6.799999999999584155e-04,1.020000000000020890e-03,1.419999999999976836e-03,1.830000000000053806e-03,2.199999999999979750e-03,2.669999999999950191e-03,2.790000000000070202e-03,3.220000000000000639e-03,3.390000000000004121e-03,3.539999999999987601e-03,3.769999999999940066e-03,3.820000000000045581e-03,4.059999999999952536e-03,3.970000000000029061e-03,4.099999999999992539e-03,4.010000000000069065e-03,4.009999999999958042e-03,3.879999999999994564e-03,3.739999999999965574e-03,3.570000000000073115e-03,3.349999999999964118e-03,3.290000000000015135e-03,2.950000000000008171e-03,2.929999999999988169e-03,2.719999999999944684e-03,2.590000000000092228e-03,2.449999999999952216e-03,2.360000000000028741e-03,2.240000000000019753e-03,2.069999999999905249e-03,2.020000000000021778e-03,1.820000000000043805e-03,1.649999999999929301e-03,1.610000000000000320e-03,1.550000000000051337e-03,1.340000000000007851e-03,1.229999999999953353e-03,1.149999999999984368e-03,9.200000000000319034e-04,8.299999999999974065e-04,6.899999999999684164e-04,5.900000000000904521e-04,4.699999999999704414e-04,2.499999999999724665e-04,1.900000000000234834e-04,-9.999999999954489738e-06,-7.000000000001449507e-05,-2.800000000000579803e-04,-2.900000000000124700e-04,-5.199999999999649347e-04,-5.800000000000249401e-04,-6.999999999999229061e-04,-8.400000000000629186e-04,-1.000000000000000888e-03,-1.090000000000035385e-03,-1.289999999999902336e-03,-1.350000000000073364e-03,-1.599999999999934808e-03,-1.540000000000096847e-03,-1.619999999999954809e-03,-1.700000000000034817e-03,-1.829999999999998295e-03,-1.769999999999938289e-03,-1.990000000000047287e-03,-1.950000000000007283e-03,-2.269999999999994245e-03,-2.139999999999919744e-03,-2.300000000000079758e-03,-2.279999999999948734e-03,-2.249999999999974243e-03,-2.230000000000065263e-03,-2.070000000000016271e-03,-2.249999999999974243e-03,-2.120000000000010765e-03,-2.170000000000005258e-03,-2.129999999999965254e-03,-2.219999999999999751e-03,-2.210000000000045262e-03,-2.240000000000019753e-03,-2.139999999999919744e-03,-2.300000000000079758e-03,-2.349999999999963229e-03,-2.179999999999959748e-03,-2.340000000000008740e-03,-2.319999999999988738e-03,-2.369999999999983231e-03,-2.400000000000068745e-03,-2.329999999999943228e-03,-2.319999999999988738e-03,-2.340000000000008740e-03,-2.170000000000005258e-03,-2.180000000000070770e-03,-2.019999999999910756e-03,-2.060000000000061782e-03,-1.929999999999987281e-03,-1.839999999999952784e-03,-1.800000000000023803e-03,-1.689999999999969305e-03,-1.720000000000054818e-03,-1.449999999999951328e-03,-1.410000000000022347e-03,-1.160000000000049880e-03,-1.079999999999969873e-03,-7.699999999999929123e-04,-5.300000000000304468e-04,-2.499999999999724665e-04,1.200000000000089884e-04,4.500000000000059508e-04,9.599999999999608846e-04,1.390000000000002345e-03,1.900000000000012790e-03,2.419999999999977724e-03,2.920000000000033680e-03,3.650000000000042100e-03,4.049999999999998046e-03,4.789999999999960956e-03,5.109999999999947917e-03,5.620000000000069384e-03,5.739999999999967351e-03,6.240000000000023306e-03,6.139999999999923297e-03,6.330000000000057803e-03,6.129999999999968807e-03,6.249999999999977796e-03,5.900000000000016342e-03,6.149999999999988809e-03,5.770000000000052864e-03,5.900000000000016342e-03,5.839999999999956337e-03,5.840000000000067359e-03,5.789999999999961844e-03,5.009999999999958931e-03,4.260000000000041531e-03,3.349999999999964118e-03,2.029999999999976268e-03,9.000000000000119016e-04,-7.999999999996898481e-05,-3.699999999999814548e-04,-1.000000000006551204e-05,2.900000000000124700e-04,7.800000000000029132e-04,1.450000000000062350e-03,2.079999999999970761e-03,2.569999999999961204e-03,2.610000000000001208e-03,2.219999999999999751e-03,1.900000000000012790e-03,1.160000000000049880e-03,5.499999999999394262e-04,4.999999999999449329e-05,-2.899999999999014477e-04,-5.300000000000304468e-04,-5.899999999999794298e-04,-4.700000000000814637e-04,-6.599999999999939249e-04,-8.299999999999974065e-04,-9.699999999999153744e-04,-9.000000000000119016e-04,-7.500000000000284217e-04,-6.399999999999739231e-04,-4.500000000000614619e-04,-2.199999999999979750e-04,-3.100000000000324718e-04,-8.999999999992347455e-05,-3.400000000000069633e-04,-7.900000000000684253e-04,-1.019999999999909868e-03,-1.319999999999987850e-03,-1.540000000000096847e-03,-1.399999999999956835e-03,-1.040000000000040892e-03,-7.399999999999629097e-04,-2.499999999999724665e-04,-1.300000000000745004e-04,-5.999999999994898303e-05,7.999999999996898481e-05,9.999999999998898659e-05,-3.999999999992898125e-05,-8.000000000008000711e-05,-1.699999999998924594e-04,-4.000000000004000356e-05,-1.999999999999779732e-04,-4.000000000004000356e-05,5.999999999994898303e-05,2.000000000000889955e-04,3.699999999999814548e-04,5.199999999999649347e-04,9.000000000000119016e-04,1.029999999999975380e-03,1.520000000000076845e-03,1.719999999999943796e-03,2.049999999999996270e-03,2.319999999999988738e-03,2.580000000000026716e-03,2.839999999999953673e-03,3.099999999999991651e-03,3.180000000000071658e-03,3.340000000000009628e-03,3.569999999999962093e-03,3.589999999999982094e-03,3.310000000000035136e-03,3.759999999999985576e-03,3.689999999999971081e-03,3.560000000000007603e-03,3.650000000000042100e-03,3.569999999999962093e-03,3.780000000000005578e-03,3.970000000000029061e-03,4.009999999999958042e-03,3.970000000000029061e-03,4.199999999999981526e-03,3.990000000000049063e-03,4.259999999999930509e-03,4.099999999999992539e-03,4.310000000000036025e-03,3.940000000000054570e-03,3.929999999999989058e-03,3.819999999999934559e-03,3.830000000000000071e-03,3.500000000000058620e-03,3.830000000000000071e-03,3.379999999999938609e-03,3.510000000000013110e-03,3.360000000000029630e-03,3.369999999999984119e-03,3.099999999999991651e-03,3.199999999999980638e-03,3.030000000000088178e-03,2.579999999999915694e-03,2.520000000000077733e-03,2.249999999999974243e-03,1.950000000000007283e-03,1.489999999999991331e-03,1.449999999999951328e-03,9.400000000000519051e-04,9.000000000000119016e-04,5.299999999999194245e-04,4.600000000000159517e-04,2.000000000002000178e-05,-2.999999999997449152e-05,-4.199999999999759481e-04,-5.600000000000049383e-04
-2.069999999999988516e-04,-1.029999999999989257e-04,-2.499999999999724665e-05,-5.700000000000149392e-05,6.400000000000155564e-05,1.289999999999971725e-04,1.830000000000026050e-04,2.949999999999966538e-04,3.560000000000021481e-04,5.490000000000008762e-04,7.529999999999967275e-04,9.180000000000021476e-04,1.264000000000001234e-03,1.570999999999996011e-03,1.840000000000001357e-03,2.229000000000001813e-03,2.487999999999997158e-03,2.772999999999997689e-03,3.109000000000000652e-03,3.215000000000009517e-03,3.481999999999998985e-03,3.685999999999994836e-03,3.628999999999993342e-03,3.840000000000010072e-03,3.851999999999994317e-03,3.707000000000001960e-03,3.817000000000000948e-03,3.629999999999994342e-03,3.460000000000004738e-03,3.390000000000004121e-03,3.079999999999999405e-03,2.979999999999996541e-03,2.839999999999995306e-03,2.530000000000004468e-03,2.610000000000001208e-03,2.479999999999996096e-03,2.390000000000003233e-03,2.500000000000002220e-03,2.370000000000010987e-03,2.449999999999979972e-03,2.409999999999995479e-03,2.180000000000015259e-03,2.189999999999997504e-03,1.959999999999989528e-03,1.719999999999999307e-03,1.500000000000001332e-03,1.200000000000006617e-03,9.500000000000063949e-04,6.799999999999861711e-04,3.500000000000169642e-04,7.999999999999674039e-05,-2.000000000000057288e-04,-5.199999999999926903e-04,-8.299999999999974065e-04,-1.140000000000002123e-03,-1.469999999999999085e-03,-1.760000000000011555e-03,-1.869999999999982787e-03,-2.140000000000003011e-03,-2.240000000000019753e-03,-2.199999999999979750e-03,-2.280000000000004245e-03,-2.159999999999995257e-03,-2.110000000000000764e-03,-2.020000000000021778e-03,-1.809999999999978293e-03,-1.770000000000007678e-03,-1.600000000000004197e-03,-1.399999999999998468e-03,-1.329999999999997851e-03,-1.160000000000008247e-03,-1.019999999999993134e-03,-9.300000000000002709e-04,-7.999999999999951594e-04,-7.300000000000084199e-04,-6.599999999999939249e-04,-5.600000000000049383e-04,-5.399999999999988143e-04,-4.900000000000043210e-04,-4.599999999999881961e-04,-4.500000000000059508e-04,-4.100000000000075806e-04,-4.399999999999959499e-04,-4.399999999999959499e-04,-4.500000000000059508e-04,-5.000000000000004441e-04,-5.099999999999965672e-04,-5.499999999999949374e-04,-5.799999999999971845e-04,-5.800000000000110623e-04,-6.099999999999994316e-04,-5.999999999999894307e-04,-5.600000000000049383e-04,-5.600000000000049383e-04,-4.799999999999943201e-04,-4.299999999999998268e-04,-3.500000000000030864e-04,-2.699999999999924682e-04,-1.800000000000134825e-04,-5.999999999999061639e-05,3.999999999999837019e-05,1.499999999999973577e-04,2.599999999999963451e-04,4.100000000000075806e-04,5.599999999999910605e-04,6.900000000000100497e-04,8.599999999999996536e-04,1.039999999999999258e-03,1.159999999999994369e-03,1.430000000000000715e-03,1.500000000000001332e-03,1.770000000000007678e-03,1.979999999999995652e-03,2.070000000000002394e-03,2.339999999999994862e-03,2.460000000000003850e-03,2.630000000000007332e-03,2.839999999999981428e-03,2.850000000000019185e-03,3.069999999999989404e-03,3.170000000000006146e-03,3.140000000000003899e-03,3.319999999999989626e-03,3.230000000000010640e-03,3.279999999999977378e-03,3.310000000000007381e-03,3.099999999999991651e-03,3.130000000000021654e-03,2.979999999999982663e-03,2.850000000000019185e-03,2.809999999999979181e-03,2.640000000000003455e-03,2.620000000000011209e-03,2.610000000000001208e-03,2.479999999999982219e-03,2.590000000000008962e-03,2.549999999999996714e-03,2.689999999999997948e-03,2.920000000000005924e-03,3.060000000000007159e-03,3.539999999999987601e-03,3.970000000000001306e-03,4.250000000000003775e-03,4.900000000000015454e-03,5.209999999999992415e-03,5.819999999999991847e-03,6.409999999999999032e-03,6.650000000000017009e-03,7.439999999999974412e-03,7.980000000000014859e-03,8.310000000000011822e-03,9.119999999999961471e-03,9.080000000000032490e-03,9.699999999999986411e-03,9.890000000000009894e-03,9.599999999999997424e-03,1.000000000000000888e-02,9.610000000000007425e-03,9.459999999999968434e-03,9.350000000000024958e-03,8.589999999999986535e-03,8.429999999999993054e-03,7.809999999999983622e-03,7.150000000000045208e-03,6.720000000000003748e-03,5.830000000000001847e-03,5.330000000000001403e-03,4.729999999999956461e-03,3.939999999999999059e-03,3.520000000000023110e-03,2.900000000000013678e-03,2.529999999999976712e-03,2.149999999999985256e-03,1.750000000000029310e-03,1.519999999999965823e-03,1.240000000000018865e-03,1.020000000000020890e-03,8.999999999999563904e-04,6.500000000000394351e-04,5.499999999999949374e-04,3.900000000000014566e-04,2.099999999999879741e-04,6.000000000000449418e-05,-1.099999999999989875e-04,-2.599999999999824674e-04,-4.700000000000259526e-04,-5.700000000000149392e-04,-7.399999999999629097e-04,-8.000000000000229150e-04,-9.000000000000119016e-04,-9.799999999999808864e-04,-9.600000000000163958e-04,-1.049999999999995381e-03,-1.139999999999974367e-03,-1.099999999999989875e-03,-1.250000000000028866e-03,-1.269999999999993356e-03,-1.369999999999982343e-03,-1.470000000000026841e-03,-1.419999999999976836e-03,-1.570000000000015827e-03,-1.599999999999990319e-03,-1.649999999999984812e-03,-1.680000000000014815e-03,-1.610000000000000320e-03,-1.709999999999989306e-03,-1.600000000000045830e-03,-1.599999999999990319e-03,-1.510000000000011333e-03,-1.459999999999961329e-03,-1.340000000000007851e-03,-1.230000000000008864e-03,-1.130000000000019877e-03,-1.069999999999959872e-03,-9.200000000000319034e-04,-8.699999999999818989e-04,-7.400000000000184208e-04,-6.399999999999739231e-04,-5.999999999999894307e-04,-5.300000000000304468e-04,-5.000000000000004441e-04,-4.899999999999904432e-04,-4.199999999999759481e-04,-4.000000000000114575e-04,-3.700000000000369660e-04,-3.599999999999714539e-04,-3.299999999999969624e-04,-3.299999999999969624e-04,-3.199999999999869615e-04,-3.600000000000269651e-04,-3.400000000000069633e-04,-3.900000000000014566e-04,-4.099999999999659472e-04,-4.800000000000359535e-04,-5.499999999999949374e-04,-6.099999999999994316e-04,-7.300000000000084199e-04,-8.099999999999774047e-04,-9.000000000000119016e-04,-1.029999999999975380e-03,-1.109999999999999876e-03,-1.260000000000038867e-03,-1.339999999999952340e-03,-1.510000000000011333e-03,-1.650000000000040323e-03,-1.689999999999969305e-03,-1.879999999999992788e-03,-1.890000000000002789e-03,-2.030000000000031779e-03,-2.069999999999960760e-03,-2.060000000000006271e-03,-2.209999999999989750e-03,-2.140000000000030767e-03,-2.230000000000009752e-03,-2.209999999999989750e-03,-2.139999999999975255e-03,-2.219999999999999751e-03,-2.130000000000020766e-03,-2.130000000000020766e-03,-2.119999999999955254e-03,-2.060000000000006271e-03,-2.039999999999986269e-03,-1.980000000000037286e-03,-1.929999999999987281e-03,-1.919999999999977280e-03,-1.829999999999998295e-03,-1.810000000000033804e-03,-1.719999999999999307e-03,-1.689999999999969305e-03,-1.620000000000010321e-03,-1.539999999999985825e-03,-1.490000000000046843e-03,-1.359999999999972342e-03,-1.329999999999997851e-03,-1.180000000000014371e-03,-1.010000000000010889e-03,-9.399999999999963940e-04,-7.300000000000084199e-04,-6.199999999999539213e-04,-5.000000000000004441e-04,-3.500000000000169642e-04,-2.599999999999824674e-04,-1.000000000000444977e-04,9.000000000003449685e-05,3.199999999999869615e-04,6.300000000000194333e-04,1.009999999999955378e-03,1.320000000000043361e-03,1.819999999999988294e-03,2.219999999999999751e-03,2.579999999999971205e-03,3.100000000000047162e-03,3.209999999999990639e-03,3.519999999999967599e-03,3.520000000000023110e-03,3.369999999999984119e-03,3.290000000000015135e-03,2.890000000000003677e-03,2.709999999999990195e-03,2.259999999999984244e-03,1.800000000000023803e-03,1.429999999999986837e-03,1.029999999999975380e-03,7.700000000000484235e-04,6.199999999999539213e-04,5.600000000000049383e-04,5.200000000000204459e-04,5.299999999999749356e-04,5.500000000000504485e-04,5.000000000000004441e-04,5.099999999999549338e-04,4.399999999999959499e-04,3.100000000000324718e-04,2.599999999999824674e-04,1.300000000000189893e-04,8.999999999997898570e-05,1.800000000000134825e-04,2.599999999999824674e-04,4.800000000000359535e-04,6.399999999999739231e-04,8.099999999999774047e-04,9.200000000000319034e-04,9.500000000000063949e-04,9.099999999999663913e-04,7.900000000000129141e-04,6.900000000000239275e-04,5.299999999999749356e-04,4.899999999999904432e-04,3.900000000000014566e-04,2.300000000000079758e-04,2.099999999999879741e-04,1.300000000000189893e-04,1.099999999999989875e-04,7.000000000001449507e-05,3.999999999998449240e-05,-2.000000000002000178e-05,-3.999999999998449240e-05,-2.599999999999824674e-04,-4.299999999999859490e-04,-6.000000000000449418e-04,-8.900000000000019007e-04,-9.899999999999908873e-04,-1.209999999999988862e-03,-1.419999999999976836e-03,-1.480000000000036842e-03,-1.589999999999980318e-03,-1.599999999999990319e-03,-1.680000000000014815e-03,-1.599999999999990319e-03,-1.649999999999984812e-03,-1.580000000000025828e-03,-1.469999999999971330e-03,-1.460000000000016840e-03,-1.269999999999993356e-03,-1.190000000000024372e-03,-1.120000000000009877e-03,-1.029999999999975380e-03,-1.039999999999985381e-03,-1.049999999999995381e-03,-1.120000000000009877e-03,-1.170000000000004370e-03,-1.269999999999993356e-03,-1.319999999999987850e-03,-1.370000000000037854e-03,-1.469999999999971330e-03,-1.439999999999996838e-03,-1.580000000000025828e-03,-1.630000000000020322e-03,-1.610000000000000320e-03,-1.639999999999974811e-03,-1.450000000000006839e-03,-1.329999999999997851e-03,-1.109999999999999876e-03,-9.100000000000219025e-04,-6.299999999999639222e-04,-3.100000000000324718e-04,2.000000000002000178e-05,3.299999999999969624e-04,7.099999999999884182e-04,1.090000000000035385e-03,1.529999999999975824e-03,1.970000000000027285e-03,2.299999999999968736e-03,2.829999999999999183e-03,3.200000000000036149e-03,3.869999999999984563e-03,4.569999999999962981e-03,5.170000000000007923e-03,6.269999999999997797e-03,6.930000000000047233e-03,8.219999999999949569e-03,9.070000000000022489e-03,1.041999999999998483e-02,1.158000000000003471e-02,1.238999999999995660e-02,1.388000000000000345e-02,1.411000000000001142e-02,1.524000000000003130e-02,1.539999999999996927e-02,1.578000000000001624e-02,1.589000000000001522e-02,1.505000000000000782e-02,1.491999999999993332e-02,1.353000000000004199e-02,1.314000000000004054e-02,1.188000000000000167e-02,1.090999999999997527e-02,1.010999999999995236e-02,8.709999999999995524e-03,8.010000000000072617e-03,6.749999999999922728e-03,5.759999999999987352e-03,4.530000000000033999e-03,3.410000000000024123e-03,2.449999999999952216e-03,1.130000000000075389e-03,7.999999999996898481e-05,-8.099999999999774047e-04,-1.860000000000083809e-03,-2.659999999999995701e-03,-3.169999999999895124e-03,-3.660000000000107612e-03,-3.949999999999898037e-03,-4.280000000000061533e-03,-4.209999999999936016e-03,-4.490000000000105018e-03,-4.479999999999928484e-03,-4.450000000000065015e-03,-4.549999999999942979e-03,-4.360000000000030518e-03,-4.469999999999973994e-03,-4.299999999999970512e-03,-4.400000000000070521e-03,-4.269999999999996021e-03,-4.290000000000016023e-03,-4.299999999999970512e-03,-4.159999999999941522e-03,-4.269999999999996021e-03,-4.110000000000058051e-03,-4.179999999999961524e-03,-4.010000000000069065e-03,-4.019999999999912532e-03,-3.920000000000034568e-03,-3.750000000000031086e-03,-3.680000000000016591e-03,-3.399999999999958611e-03,-3.319999999999989626e-03,-2.890000000000059188e-03,-2.780000000000004690e-03,-2.419999999999922213e-03,-2.050000000000051781e-03,-1.709999999999989306e-03,-1.369999999999982343e-03,-1.000000000000000888e-03,-5.299999999999749356e-04,-2.200000000000534861e-04,2.400000000000179767e-04,6.700000000000039257e-04,1.039999999999985381e-03,1.410000000000022347e-03,1.919999999999977280e-03,2.209999999999989750e-03,2.659999999999995701e-03,2.890000000000059188e-03,3.240000000000020641e-03,3.449999999999953104e-03,3.600000000000047606e-03,3.830000000000000071e-03,3.879999999999994564e-03,4.099999999999992539e-03,4.039999999999932534e-03,4.149999999999987033e-03,4.010000000000069065e-03,4.099999999999992539e-03,3.959999999999963549e-03,3.720000000000056595e-03,3.680000000000016591e-03,3.409999999999913101e-03,3.280000000000060645e-03,3.059999999999951648e-03,2.960000000000073683e-03,2.709999999999990195e-03,2.599999999999935696e-03,2.570000000000072227e-03,2.309999999999923226e-03,2.310000000000034248e-03,2.120000000000010765e-03,2.079999999999970761e-03,1.870000000000038298e-03,1.649999999999929301e-03,1.610000000000000320e-03,1.550000000000051337e-03,1.390000000000002345e-03,1.269999999999993356e-03,1.129999999999964366e-03,9.299999999999863931e-04,9.000000000000119016e-04,7.200000000000539302e-04,6.300000000000194333e-04,4.099999999999104361e-04,2.700000000001034905e-04,1.499999999999834799e-04,1.999999999990897948e-05,-1.399999999999179678e-04,-1.600000000000489919e-04,-3.799999999999359446e-04,-4.500000000000614619e-04,-6.300000000000194333e-04,-7.199999999999429079e-04,-8.799999999999918998e-04,-1.000000000000000888e-03,-1.149999999999984368e-03,-1.250000000000084377e-03,-1.409999999999911324e-03,-1.510000000000011333e-03,-1.620000000000065832e-03,-1.639999999999974811e-03,-1.689999999999969305e-03,-1.870000000000038298e-03,-1.839999999999952784e-03,-2.000000000000001776e-03,-2.010000000000067288e-03,-2.279999999999948734e-03,-2.219999999999999751e-03,-2.310000000000034248e-03,-2.379999999999937721e-03,-2.240000000000019753e-03,-2.319999999999988738e-03,-2.099999999999990763e-03,-2.219999999999999751e-03,-2.210000000000045262e-03,-2.160000000000050768e-03,-2.169999999999894236e-03,-2.210000000000045262e-03,-2.210000000000045262e-03,-2.279999999999948734e-03,-2.149999999999985256e-03,-2.360000000000028741e-03,-2.330000000000054250e-03,-2.259999999999928733e-03,-2.319999999999988738e-03,-2.319999999999988738e-03,-2.500000000000057732e-03,-2.290000000000014246e-03,-2.390000000000003233e-03,-2.259999999999928733e-03,-2.319999999999988738e-03,-2.170000000000005258e-03,-2.130000000000076277e-03,-1.989999999999936264e-03,-2.070000000000016271e-03,-1.979999999999981775e-03,-1.829999999999998295e-03,-1.790000000000069313e-03,-1.730000000000009308e-03,-1.689999999999969305e-03,-1.439999999999996838e-03,-1.379999999999936833e-03,-1.200000000000034373e-03,-1.040000000000040892e-03,-7.299999999999529088e-04,-5.300000000000304468e-04,-2.199999999999979750e-04,1.200000000000089884e-04,5.600000000000049383e-04,9.399999999999963940e-04,1.489999999999991331e-03,2.039999999999986269e-03,2.550000000000052225e-03,3.000000000000002665e-03,3.699999999999925571e-03,4.130000000000078053e-03,4.849999999999909939e-03,5.140000000000033431e-03,5.759999999999987352e-03,5.830000000000001847e-03,6.240000000000023306e-03,6.199999999999983302e-03,6.380000000000052296e-03,6.170000000000008811e-03,6.239999999999912283e-03,6.000000000000005329e-03,6.020000000000025331e-03,5.900000000000016342e-03,5.850000000000021849e-03,5.819999999999936335e-03,5.910000000000081855e-03,5.689999999999972857e-03,5.109999999999947917e-03,4.360000000000030518e-03,3.179999999999960636e-03,2.110000000000056275e-03,9.399999999999408828e-04,1.000000000006551204e-05,-3.800000000000469669e-04,-2.799999999999469580e-04,2.900000000000124700e-04,7.599999999999829114e-04,1.519999999999965823e-03,2.129999999999965254e-03,2.430000000000043237e-03,2.670000000000061213e-03,2.449999999999952216e-03,1.879999999999992788e-03,1.170000000000004370e-03,6.399999999999739231e-04,1.499999999999834799e-04,-1.599999999999379696e-04,-3.500000000000724754e-04,-5.399999999999849365e-04,-5.699999999999594280e-04,-7.099999999999884182e-04,-7.800000000000029132e-04,-8.099999999999774047e-04,-8.500000000000174083e-04,-8.400000000000629186e-04,-5.999999999999339195e-04,-5.200000000000759570e-04,-3.699999999999814548e-04,-1.200000000000089884e-04,-1.899999999999124611e-04,-4.800000000000359535e-04,-7.099999999999884182e-04,-1.010000000000066400e-03,-1.369999999999982343e-03,-1.519999999999965823e-03,-1.380000000000047855e-03,-9.799999999999808864e-04,-6.199999999999539213e-04,-3.600000000000269651e-04,-7.999999999996898481e-05,-1.100000000000544986e-04,4.000000000004000356e-05,9.000000000003449685e-05,-4.999999999999449329e-05,-4.000000000004000356e-05,-7.999999999996898481e-05,-1.900000000000234834e-04,-9.999999999998898659e-05,-4.999999999999449329e-05,1.099999999999434763e-04,9.000000000003449685e-05,3.600000000000269651e-04,5.799999999999139177e-04,9.300000000000974154e-04,1.179999999999958860e-03,1.430000000000042348e-03,1.709999999999989306e-03,1.989999999999936264e-03,2.480000000000037730e-03,2.580000000000026716e-03,2.959999999999962661e-03,3.090000000000037161e-03,3.239999999999909619e-03,3.480000000000038618e-03,3.550000000000053113e-03,3.489999999999993108e-03,3.659999999999996589e-03,3.519999999999967599e-03,3.879999999999994564e-03,3.689999999999971081e-03,3.680000000000016591e-03,3.650000000000042100e-03,3.959999999999963549e-03,4.129999999999967031e-03,4.049999999999998046e-03,4.020000000000023554e-03,4.260000000000041531e-03,4.229999999999956017e-03,4.340000000000010516e-03,4.079999999999972538e-03,4.319999999999990514e-03,4.040000000000043556e-03,4.079999999999972538e-03,3.709999999999991083e-03,4.080000000000083560e-03,3.679999999999905569e-03,3.810000000000091092e-03,3.439999999999998614e-03,3.599999999999936584e-03,3.639999999999976588e-03,3.460000000000018616e-03,3.280000000000060645e-03,3.190000000000026148e-03,3.029999999999977156e-03,2.639999999999975699e-03,2.530000000000032223e-03,2.439999999999997726e-03,1.850000000000018296e-03,1.639999999999974811e-03,1.499999999999945821e-03,1.040000000000040892e-03,1.049999999999995381e-03,5.300000000000304468e-04,2.599999999999269562e-04,3.400000000000069633e-04,4.000000000004000356e-05,-4.600000000000159517e-04,-4.699999999999704414e-04
