600,602,604,606,608,610,612,614,616,618,620,622,624,626,628,630,632,634,636,638,640,642,644,646,648,650,652,654,656,658,660,662,664,666,668,670,672,674,676,678,680,682,684,686,688,690,692,694,696,698,700,702,704,706,708,710,712,714,716,718,720,722,724,726,728,730,732,734,736,738,740,742,744,746,748,750,752,754,756,758,760,762,764,766,768,770,772,774,776,778,780,782,784,786,788,790,792,794,796,798,800,802,804,806,808,810,812,814,816,818,820,822,824,826,828,830,832,834,836,838,840,842,844,846,848,850,852,854,856,858,860,862,864,866,868,870,872,874,876,878,880,882,884,886,888,890,892,894,896,898,900,902,904,906,908,910,912,914,916,918,920,922,924,926,928,930,932,934,936,938,940,942,944,946,948,950,952,954,956,958,960,962,964,966,968,970,972,974,976,978,980,982,984,986,988,990,992,994,996,998,1000,1002,1004,1006,1008,1010,1012,1014,1016,1018,1020,1022,1024,1026,1028,1030,1032,1034,1036,1038,1040,1042,1044,1046,1048,1050,1052,1054,1056,1058,1060,1062,1064,1066,1068,1070,1072,1074,1076,1078,1080,1082,1084,1086,1088,1090,1092,1094,1096,1098,1100,1102,1104,1106,1108,1110,1112,1114,1116,1118,1120,1122,1124,1126,1128,1130,1132,1134,1136,1138,1140,1142,1144,1146,1148,1150,1152,1154,1156,1158,1160,1162,1164,1166,1168,1170,1172,1174,1176,1178,1180,1182,1184,1186,1188,1190,1192,1194,1196,1198,1200,1202,1204,1206,1208,1210,1212,1214,1216,1218,1220,1222,1224,1226,1228,1230,1232,1234,1236,1238,1240,1242,1244,1246,1248,1250,1252,1254,1256,1258,1260,1262,1264,1266,1268,1270,1272,1274,1276,1278,1280,1282,1284,1286,1288,1290,1292,1294,1296,1298,1300,1302,1304,1306,1308,1310,1312,1314,1316,1318,1320,1322,1324,1326,1328,1330,1332,1334,1336,1338,1340,1342,1344,1346,1348,1350,1352,1354,1356,1358,1360,1362,1364,1366,1368,1370,1372,1374,1376,1378,1380,1382,1384,1386,1388,1390,1392,1394,1396,1398,1400,1402,1404,1406,1408,1410,1412,1414,1416,1418,1420,1422,1424,1426,1428,1430,1432,1434,1436,1438,1440,1442,1444,1446,1448,1450,1452,1454,1456,1458,1460,1462,1464,1466,1468,1470,1472,1474,1476,1478,1480,1482,1484,1486,1488,1490,1492,1494,1496,1498,1500,1502,1504,1506,1508,1510,1512,1514,1516,1518,1520,1522,1524,1526,1528,1530,1532,1534,1536,1538,1540,1542,1544,1546,1548,1550,1552,1554,1556,1558,1560,1562,1564,1566,1568,1570,1572,1574,1576,1578,1580,1582,1584,1586,1588,1590,1592,1594,1596,1598,1600,1602,1604,1606,1608,1610,1612,1614,1616,1618,1620,1622,1624,1626,1628,1630,1632,1634,1636,1638,1640,1642,1644,1646,1648,1650,1652,1654,1656,1658,1660,1662,1664,1666,1668,1670,1672,1674,1676,1678,1680,1682,1684,1686,1688,1690,1692,1694,1696,1698,1700,1702,1704,1706,1708,1710,1712,1714,1716,1718,1720,1722,1724,1726,1728,1730,1732,1734,1736,1738,1740,1742,1744,1746,1748,1750,1752,1754,1756,1758,1760,1762,1764,1766,1768,1770,1772,1774,1776,1778,1780,1782,1784,1786,1788,1790,1792,1794,1796,1798,1800,1802,1804,1806,1808,1810,1812,1814,1816,1818,1820,1822,1824,1826,1828,1830,1832,1834,1836,1838,1840,1842,1844,1846,1848,1850,1852,1854,1856,1858,1860,1862,1864,1866,1868,1870,1872,1874,1876,1878,1880,1882,1884,1886,1888,1890,1892,1894,1896,1898
3.051661,3.05605,3.060313,3.06817,3.077758,3.091957,3.108704,3.135615,3.156398,3.174849,3.18697,3.199733,3.212581,3.226608,3.23645,3.245956,3.256641,3.267423,3.27598,3.285,3.289668,3.290959,3.295998,3.298719,3.304412,3.312111,3.32357,3.339208,3.35359,3.368689,3.390859,3.408737,3.427709,3.463498,3.49066,3.519881,3.550364,3.569082,3.593022,3.613046,3.632082,3.650347,3.673619,3.699282,3.723803,3.739697,3.754894,3.768716,3.773272,3.777081,3.770019,3.766212,3.767326,3.761901,3.756648,3.741385,3.722306,3.693463,3.685905,3.665309,3.644146,3.627465,3.612621,3.590029,3.57384,3.560838,3.545117,3.531939,3.521008,3.505393,3.495632,3.487149,3.480627,3.471159,3.465064,3.460971,3.458205,3.45424,3.449606,3.445996,3.443836,3.439339,3.437014,3.436909,3.437285,3.440389,3.441302,3.440881,3.443605,3.446775,3.449787,3.456579,3.463125,3.469226,3.472911,3.479296,3.485927,3.493253,3.500684,3.506634,3.514474,3.519688,3.524707,3.529448,3.535218,3.540506,3.546206,3.550935,3.555694,3.560766,3.565195,3.569445,3.574091,3.579231,3.585005,3.589294,3.59383,3.598562,3.603875,3.607174,3.610402,3.615691,3.616779,3.621382,3.627462,3.631787,3.636954,3.64193,3.64728,3.653529,3.6587,3.665585,3.66773,3.672273,3.675704,3.679184,3.681,3.682735,3.683239,3.684132,3.684846,3.686207,3.685439,3.68685,3.687325,3.687289,3.686434,3.687818,3.687176,3.686659,3.686389,3.687193,3.688187,3.690039,3.692828,3.695358,3.698392,3.701354,3.703177,3.704104,3.702352,3.698623,3.69133,3.679743,3.663868,3.644148,3.620296,3.593605,3.564884,3.535304,3.506776,3.477818,3.449938,3.424494,3.399111,3.374714,3.351922,3.330049,3.30949,3.290225,3.273042,3.257548,3.242631,3.228823,3.216311,3.203965,3.192445,3.182024,3.17214,3.163375,3.155347,3.148363,3.142152,3.136426,3.131239,3.126746,3.122429,3.11842,3.114802,3.111252,3.107788,3.104352,3.100935,3.097529,3.093655,3.089398,3.084577,3.078628,3.071615,3.064075,3.055889,3.04767,3.039524,3.031806,3.02466,3.017516,3.010372,3.003352,2.995594,2.987093,2.977898,2.967658,2.956395,2.943916,2.930571,2.917078,2.902419,2.887565,2.873366,2.858667,2.844132,2.829946,2.816065,2.80279,2.789494,2.776693,2.764591,2.752194,2.739962,2.728238,2.716321,2.704616,2.693088,2.682136,2.671914,2.661959,2.652905,2.645234,2.638432,2.633145,2.630196,2.629126,2.629729,2.632104,2.637185,2.645744,2.65964,2.679034,2.706028,2.739532,2.782536,2.833547,2.888793,2.949872,3.01088,3.063351,3.109154,3.147085,3.179374,3.207728,3.233161,3.257198,3.278867,3.296352,3.312221,3.327254,3.34377,3.36563,3.393097,3.427675,3.466099,3.504395,3.543506,3.580962,3.614492,3.646675,3.67874,3.714464,3.756622,3.804022,3.859465,3.917956,3.970931,4.017545,4.053797,4.086637,4.119178,4.159394,4.210639,4.267083,4.317688,4.359537,4.383355,4.392953,4.385521,4.365533,4.325294,4.263365,4.181814,4.080284,3.96225,3.843456,3.728017,3.621553,3.523682,3.433552,3.355073,3.281463,3.213127,3.152233,3.095082,3.04267,2.994303,2.949419,2.910133,2.87346,2.839498,2.809852,2.782452,2.757789,2.735707,2.715698,2.698374,2.682425,2.667624,2.654709,2.642875,2.632443,2.623745,2.616803,2.611929,2.608746,2.607231,2.607078,2.607552,2.6078,2.606718,2.603317,2.597377,2.588931,2.578634,2.56808,2.5575,2.547757,2.539339,2.532182,2.526867,2.522956,2.520628,2.520103,2.522086,2.527145,2.53658,2.551341,2.572036,2.599738,2.636691,2.680043,2.732236,2.789085,2.851645,2.918071,2.981452,3.045734,3.109445,3.169696,3.227891,3.280332,3.327078,3.370091,3.408365,3.447401,3.48802,3.529527,3.573691,3.618653,3.666384,3.71783,3.769592,3.824806,3.881463,3.941422,4.006942,4.069613,4.131293,4.175844,4.189883,4.161882,4.116347,4.068836,4.037052,4.031653,4.044542,4.070681,4.099298,4.123821,4.137933,4.144429,4.147894,4.150095,4.152419,4.155469,4.15466,4.149457,4.139085,4.12429,4.105702,4.083884,4.058485,4.031406,4.001824,3.973125,3.947969,3.928162,3.913184,3.901199,3.891548,3.883027,3.874313,3.864525,3.852599,3.838531,3.822997,3.805959,3.788042,3.7713,3.75407,3.737643,3.720823,3.703703,3.686373,3.667987,3.649643,3.631586,3.613944,3.598463,3.583653,3.570153,3.558605,3.548567,3.540143,3.531839,3.523881,3.516516,3.51013,3.505219,3.502679,3.502605,3.505615,3.51128,3.52045,3.532457,3.547692,3.565511,3.58527,3.607484,3.630504,3.653877,3.676139,3.69741,3.71535,3.731075,3.746947,3.763843,3.786204,3.815603,3.852206,3.898273,3.950393,4.010601,4.07792,4.14671,4.219336,4.289955,4.354664,4.408073,4.446747,4.468665,4.474908,4.46595,4.442914,4.412021,4.375062,4.340153,4.313371,4.298891,4.296979,4.307592,4.3328,4.363037,4.390065,4.396228,4.371707,4.318688,4.253509,4.189318,4.135744,4.095329,4.067708,4.05091,4.039632,4.030246,4.022287,4.01637,4.01398,4.015273,4.022109,4.034961,4.052829,4.075777,4.103854,4.13416,4.173852,4.228247,4.305038,4.418068,4.564729,4.758419,4.976367,5.18904,5.383303,5.474359,5.491378,5.501711,5.511751,5.540599,5.556669,5.567023,5.570262,5.562074,5.549008,5.531345,5.537304,5.552575,5.573619,5.579259,5.583578,5.556875,5.529573,5.489446,5.455051,5.422363,5.382831,5.3468,5.316331,5.284977,5.248913,5.219094,5.197414,5.165533,5.140005,5.10298,5.088337,5.065701,5.031922,5.013317,4.998724,4.979005,4.945756,4.924736,4.893349,4.85106,4.820237,4.801593,4.756333,4.715034,4.693521,4.665733,4.643526,4.620622,4.609959,4.617941,4.624736,4.620289,4.606114,4.610212,4.583875,4.642496,4.525774,4.498038,4.476864,4.401817,4.373106,4.352574,4.34549,4.332477,4.25857,4.242418,4.175624,4.185068,4.140656,4.05408,4.014046,4.017634,4.012028,4.060314,4.126831,4.18559,4.192335,4.229387,4.346628,4.772714,4.785181,4.461176,4.425631,4.427605,4.528941,4.472337,4.788026,4.775837,4.575752,4.731173,4.803378,4.390245,5.0605,4.438393,4.410301,4.36708,4.498086,4.477897,4.285344,4.251131,4.401513,4.357857,4.349013,4.341579,4.199996,4.181586,4.247493,4.314536,4.220594,4.293515,4.241349,4.132674,4.246513,4.211244,4.09642,4.515496,4.440186,4.30238
3.023646,3.027477,3.031414,3.039338,3.04926,3.065987,3.084612,3.102735,3.124189,3.143525,3.163046,3.181689,3.194442,3.205512,3.217029,3.226205,3.235202,3.237921,3.24342,3.249884,3.252915,3.254583,3.259367,3.266308,3.27379,3.280721,3.29114,3.303943,3.315309,3.328161,3.347064,3.370098,3.394995,3.417571,3.43594,3.469363,3.498378,3.513616,3.535213,3.562057,3.584578,3.600785,3.615148,3.631256,3.644227,3.656588,3.665242,3.672934,3.679188,3.680359,3.672452,3.666745,3.663109,3.639376,3.635723,3.620303,3.603541,3.58845,3.571493,3.551627,3.535326,3.520154,3.499493,3.486903,3.474059,3.454317,3.44068,3.429988,3.416487,3.405364,3.397346,3.387308,3.381458,3.373367,3.369517,3.365124,3.361818,3.35752,3.354006,3.350807,3.348242,3.345465,3.343068,3.343554,3.342856,3.342672,3.341784,3.344201,3.345499,3.348091,3.352598,3.357047,3.362841,3.368244,3.37451,3.38071,3.386446,3.391893,3.396734,3.402065,3.408075,3.412674,3.417542,3.422506,3.427763,3.433268,3.438547,3.444006,3.449578,3.453485,3.457752,3.46174,3.465789,3.470168,3.475534,3.479493,3.482773,3.486624,3.489803,3.493755,3.497863,3.501333,3.505767,3.509065,3.512604,3.517958,3.522252,3.527474,3.53107,3.537554,3.543074,3.548396,3.552465,3.556365,3.558876,3.561965,3.56355,3.565742,3.566629,3.567173,3.568029,3.56828,3.568654,3.569806,3.571046,3.571014,3.571453,3.571554,3.571039,3.571718,3.572307,3.57311,3.574959,3.577145,3.579977,3.583148,3.58843,3.590958,3.593412,3.594286,3.593301,3.589693,3.582488,3.571855,3.556661,3.537629,3.514905,3.489407,3.461567,3.433072,3.405591,3.37791,3.351206,3.326938,3.302701,3.27947,3.25783,3.236931,3.217495,3.199311,3.183155,3.168705,3.154956,3.142104,3.130581,3.119239,3.108624,3.099092,3.090097,3.082178,3.07502,3.068908,3.063562,3.058679,3.054317,3.050564,3.047036,3.043852,3.040958,3.038167,3.035488,3.03283,3.030124,3.027413,3.024358,3.020884,3.016882,3.011792,3.005805,2.999157,2.99193,2.98462,2.977387,2.970548,2.964233,2.957904,2.951663,2.945466,2.938624,2.931031,2.922726,2.913391,2.903085,2.891564,2.879229,2.866678,2.853006,2.839149,2.825861,2.812128,2.798575,2.785363,2.772492,2.76018,2.747864,2.735994,2.724835,2.713424,2.702175,2.691416,2.680523,2.669803,2.659246,2.649237,2.639923,2.630911,2.622752,2.61594,2.609977,2.605465,2.603133,2.602602,2.603709,2.606538,2.612042,2.620934,2.634919,2.654254,2.680993,2.714012,2.756326,2.806543,2.860836,2.920723,2.98049,3.031948,3.076764,3.113904,3.145596,3.173381,3.198261,3.221878,3.243108,3.260271,3.275865,3.290816,3.307259,3.328878,3.355856,3.389689,3.427268,3.464558,3.502589,3.538912,3.57162,3.602783,3.633974,3.668787,3.710058,3.756596,3.810549,3.867417,3.919062,3.964332,4.000296,4.032016,4.065735,4.10504,4.155329,4.211001,4.260386,4.30073,4.325779,4.334351,4.328071,4.308578,4.268648,4.2089,4.129775,4.030081,3.91448,3.798853,3.686282,3.582556,3.487045,3.39903,3.322642,3.25101,3.18472,3.12556,3.070192,3.019326,2.972472,2.929028,2.890988,2.855503,2.822686,2.794041,2.767531,2.743712,2.722419,2.703116,2.686396,2.67102,2.656761,2.644351,2.632942,2.622904,2.614527,2.607834,2.603132,2.600035,2.598593,2.598449,2.598933,2.599215,2.598196,2.594975,2.589295,2.581168,2.571256,2.561049,2.550838,2.541464,2.533235,2.526292,2.521141,2.517328,2.515049,2.514543,2.516386,2.521236,2.530351,2.544595,2.564599,2.591408,2.627222,2.669273,2.719875,2.774929,2.835528,2.899861,2.961148,3.023329,3.084954,3.143059,3.199261,3.249858,3.295073,3.336509,3.373588,3.411493,3.450885,3.49127,3.534229,3.577756,3.62422,3.674248,3.724739,3.778494,3.83383,3.892529,3.956652,4.019371,4.080126,4.124337,4.137659,4.110191,4.065024,4.018721,3.987185,3.981363,3.993893,4.018376,4.045231,4.068498,4.082179,4.088305,4.090772,4.093693,4.095067,4.096814,4.096377,4.089944,4.07948,4.064987,4.0465,4.02528,4.000484,3.973994,3.945217,3.916236,3.891871,3.872428,3.856766,3.845005,3.836152,3.827276,3.81867,3.808648,3.796782,3.782964,3.767543,3.75077,3.733832,3.71699,3.700458,3.684517,3.668305,3.651481,3.634991,3.6178,3.600111,3.582818,3.56622,3.551324,3.537077,3.524446,3.513798,3.504669,3.496431,3.488776,3.481493,3.474787,3.468506,3.464264,3.462179,3.462057,3.465229,3.470982,3.479949,3.492101,3.507191,3.524351,3.543871,3.565659,3.588201,3.611145,3.632646,3.653029,3.671196,3.686479,3.702169,3.718814,3.740643,3.76903,3.805061,3.849749,3.900701,3.959741,4.024522,4.091426,4.161343,4.230259,4.292713,4.345292,4.381214,4.403821,4.409077,4.400436,4.378049,4.349072,4.312153,4.279635,4.253666,4.239985,4.238492,4.248062,4.272927,4.303027,4.327924,4.33445,4.31077,4.260121,4.196545,4.133173,4.081477,4.042184,4.014769,3.999502,3.987874,3.978699,3.971565,3.96783,3.964966,3.965417,3.970742,3.982959,4.000735,4.023286,4.050432,4.080628,4.119045,4.172716,4.247786,4.358527,4.503495,4.692003,4.907545,5.118341,5.304535,5.407927,5.428866,5.433235,5.440216,5.471498,5.513444,5.523062,5.521154,5.511561,5.494549,5.481244,5.47227,5.464584,5.477104,5.503558,5.501789,5.497562,5.490938,5.457241,5.418561,5.378318,5.348566,5.311841,5.283892,5.230953,5.210052,5.188237,5.160573,5.146166,5.10514,5.089998,5.064816,5.038204,5.008841,4.997254,4.974393,4.950763,4.930738,4.903891,4.88048,4.841131,4.801351,4.769313,4.738546,4.704568,4.674839,4.647449,4.616057,4.596273,4.590539,4.583326,4.581563,4.571797,4.585346,4.559909,4.559741,4.598753,4.51139,4.431792,4.400796,4.39177,4.347762,4.296724,4.309739,4.282256,4.219119,4.173183,4.135043,4.141407,4.099067,4.020609,4.006975,3.988622,4.009724,4.00837,4.085337,4.11546,4.177606,4.221951,4.306524,4.538246,4.670334,4.45224,4.484333,4.44733,4.461108,4.554044,4.688082,4.849999,4.493549,4.423254,4.493721,4.527239,4.487653,4.308391,4.408401,4.352553,4.522176,4.511469,4.367399,4.381352,4.22356,4.295411,4.300212,4.51518,4.394229,4.212731,4.213378,4.16189,4.079695,4.214225,4.183624,4.130547,4.131662,4.125925,4.140805,4.157884,4.127997,4.104246
3.080882,3.085359,3.089445,3.096421,3.10829,3.127071,3.149647,3.170457,3.182173,3.199325,3.22636,3.248706,3.261035,3.272858,3.28564,3.29502,3.304749,3.305336,3.305169,3.306983,3.315473,3.32335,3.329354,3.33742,3.344437,3.351926,3.362146,3.376148,3.388236,3.400886,3.413726,3.438664,3.471896,3.490366,3.528254,3.552516,3.573141,3.597397,3.615812,3.635105,3.664906,3.690952,3.715178,3.739903,3.755896,3.77061,3.783893,3.794514,3.803159,3.811039,3.808705,3.797362,3.785309,3.782501,3.777005,3.769667,3.750875,3.736065,3.70493,3.694849,3.67307,3.653873,3.639137,3.623447,3.603543,3.58742,3.577448,3.560687,3.549514,3.541653,3.528524,3.519332,3.51019,3.504891,3.498767,3.494756,3.485807,3.485197,3.483114,3.479984,3.478496,3.474261,3.47114,3.471116,3.471677,3.468965,3.472054,3.47171,3.474385,3.479268,3.484884,3.488409,3.495281,3.500277,3.505385,3.511637,3.517849,3.524067,3.529227,3.535102,3.542414,3.547048,3.551418,3.556453,3.561746,3.566915,3.572341,3.577475,3.582879,3.587991,3.593146,3.598427,3.603211,3.608227,3.613553,3.617724,3.621065,3.624151,3.628752,3.634148,3.637802,3.639451,3.644514,3.6492,3.65466,3.659946,3.663613,3.668848,3.671815,3.679037,3.684289,3.68939,3.693145,3.697583,3.700862,3.703869,3.705398,3.706823,3.707812,3.708921,3.70873,3.709502,3.709629,3.710696,3.710064,3.711217,3.711331,3.710773,3.709203,3.709164,3.710042,3.709417,3.710867,3.712388,3.714176,3.717835,3.720281,3.723014,3.724567,3.72514,3.723545,3.719807,3.71253,3.701463,3.68538,3.665898,3.64253,3.616354,3.587912,3.558816,3.531031,3.502582,3.475372,3.45046,3.4257,3.401795,3.379429,3.357841,3.337791,3.318937,3.301922,3.286708,3.272129,3.258489,3.246173,3.234013,3.222512,3.212143,3.202385,3.193758,3.185668,3.178663,3.172461,3.166576,3.161264,3.156707,3.152278,3.14817,3.144464,3.140742,3.137249,3.133611,3.130072,3.126547,3.122558,3.118242,3.113381,3.107385,3.100417,3.092882,3.084768,3.076629,3.068622,3.060951,3.053844,3.046716,3.039639,3.0327,3.025074,3.016641,3.00753,2.997386,2.986258,2.973998,2.960877,2.947638,2.933245,2.918717,2.904721,2.890321,2.876123,2.862224,2.848654,2.835641,2.822605,2.810044,2.7982,2.786062,2.774137,2.762642,2.750988,2.739525,2.728239,2.717486,2.707448,2.697681,2.68879,2.681263,2.67457,2.669343,2.666409,2.665287,2.665774,2.66802,2.672859,2.681123,2.694655,2.713537,2.7399,2.772645,2.814612,2.864486,2.918309,2.977799,3.037088,3.088057,3.132583,3.169364,3.200717,3.228242,3.252905,3.276243,3.29728,3.314226,3.329544,3.344012,3.360152,3.381419,3.408156,3.441772,3.479228,3.516442,3.554419,3.59071,3.623349,3.654422,3.685453,3.720041,3.761163,3.807446,3.861362,3.918195,3.96966,4.014541,4.050213,4.081546,4.114009,4.153558,4.204197,4.259656,4.308949,4.348381,4.373128,4.382509,4.37543,4.354448,4.315856,4.255394,4.175627,4.076741,3.961544,3.845747,3.732917,3.628883,3.533154,3.445042,3.368349,3.296398,3.229567,3.170007,3.114241,3.063038,3.015755,2.971911,2.933523,2.897715,2.864542,2.835548,2.808801,2.784696,2.763146,2.743562,2.726609,2.711035,2.696545,2.683922,2.672338,2.662141,2.653616,2.646771,2.641987,2.638807,2.637295,2.637122,2.637568,2.637789,2.636752,2.633478,2.627727,2.619506,2.609451,2.599114,2.588766,2.579198,2.570872,2.56383,2.558586,2.554718,2.552385,2.551844,2.55372,2.558585,2.567802,2.582266,2.602494,2.629575,2.665727,2.708164,2.759236,2.814787,2.875963,2.940819,3.002723,3.065427,3.12758,3.186223,3.24288,3.293923,3.339375,3.381396,3.418788,3.456935,3.496674,3.537361,3.580688,3.624529,3.671355,3.721528,3.772282,3.826551,3.882002,3.941144,4.005563,4.067618,4.128477,4.172792,4.186241,4.159691,4.114916,4.068214,4.037059,4.031838,4.044357,4.070167,4.098031,4.122203,4.136042,4.14244,4.145579,4.147619,4.150015,4.151869,4.151892,4.146205,4.136211,4.121869,4.103577,4.082349,4.057682,4.031116,4.001893,3.973866,3.949597,3.929621,3.914627,3.902782,3.893748,3.885212,3.877013,3.866731,3.854894,3.84101,3.825595,3.80905,3.791708,3.775142,3.75846,3.742223,3.726399,3.709244,3.692542,3.674967,3.657155,3.639812,3.622666,3.607688,3.593492,3.580781,3.569449,3.560077,3.551863,3.543657,3.53607,3.529035,3.522792,3.517955,3.515569,3.515527,3.518396,3.524379,3.532878,3.544931,3.559978,3.577024,3.596474,3.618208,3.64082,3.663811,3.685332,3.705889,3.723875,3.739278,3.755196,3.771551,3.793692,3.822679,3.858526,3.903684,3.954441,4.013385,4.078958,4.145951,4.216323,4.28464,4.347324,4.399725,4.434903,4.457059,4.463991,4.453157,4.430659,4.401216,4.365519,4.331863,4.305758,4.290671,4.288297,4.301379,4.324646,4.355944,4.380105,4.386153,4.362352,4.31056,4.24694,4.183878,4.132228,4.092581,4.066152,4.049304,4.038286,4.029087,4.021089,4.015924,4.013341,4.014489,4.021213,4.033931,4.051582,4.07395,4.101303,4.130898,4.170405,4.223715,4.299619,4.410965,4.556231,4.744741,4.963368,5.176516,5.366362,5.459829,5.479497,5.485286,5.504608,5.539008,5.554062,5.568552,5.568623,5.563921,5.560208,5.553499,5.543811,5.576323,5.59166,5.615284,5.603445,5.565861,5.540264,5.500499,5.465539,5.432452,5.398679,5.365868,5.32576,5.305538,5.267981,5.238977,5.203991,5.185157,5.156865,5.125471,5.094681,5.081449,5.052075,5.017968,4.995069,4.980292,4.96493,4.92935,4.909325,4.882589,4.86718,4.819483,4.789823,4.75666,4.720461,4.692137,4.667927,4.651405,4.632285,4.64252,4.676332,4.658393,4.675344,4.623475,4.613804,4.689418,4.582244,4.525223,4.4599,4.46417,4.421185,4.384693,4.373353,4.338885,4.320457,4.268766,4.207026,4.228902,4.195004,4.096801,4.044898,4.040895,4.056233,4.083206,4.147719,4.194129,4.214579,4.284117,4.39219,4.661719,4.737828,4.529613,4.529576,4.431166,4.534048,4.562366,4.735194,4.788196,4.777795,4.678612,4.740937,4.645473,4.605887,4.410088,4.65265,4.440202,4.36447,4.758457,4.486553,4.632621,4.566728,4.368107,4.366066,4.502268,4.268146,4.363389,4.25379,4.058594,4.217562,4.191997,4.344003,4.517621,4.117545,4.160645,4.316345,4.316676,4.342771,4.106034
3.098082,3.101208,3.105238,3.113298,3.124671,3.139022,3.156718,3.178128,3.193243,3.21274,3.228389,3.248158,3.263652,3.277672,3.28917,3.294465,3.299081,3.30597,3.313907,3.320787,3.323802,3.328949,3.337009,3.343378,3.346033,3.352482,3.361572,3.375662,3.39151,3.404237,3.419597,3.44091,3.462478,3.491526,3.51312,3.539022,3.5592,3.581611,3.606924,3.629501,3.646971,3.664018,3.68187,3.701615,3.718607,3.733141,3.743745,3.74687,3.747622,3.752332,3.755552,3.750389,3.740292,3.732954,3.722113,3.708341,3.691595,3.679418,3.659808,3.645319,3.623953,3.606245,3.587154,3.572653,3.557673,3.541221,3.528266,3.515621,3.503594,3.492297,3.481937,3.473286,3.466936,3.46165,3.45525,3.450768,3.446835,3.442901,3.440384,3.436566,3.432676,3.430891,3.42805,3.426397,3.425452,3.426109,3.426979,3.428214,3.43036,3.432322,3.435899,3.441298,3.44696,3.451947,3.457417,3.463548,3.469413,3.475293,3.481048,3.486909,3.493457,3.498394,3.503025,3.508286,3.513586,3.518823,3.524172,3.529181,3.533878,3.53909,3.544424,3.550247,3.55478,3.558161,3.56346,3.567502,3.570904,3.575209,3.579816,3.583069,3.587759,3.591399,3.595006,3.599306,3.602886,3.608153,3.613166,3.617366,3.623587,3.630036,3.635345,3.640951,3.64517,3.649836,3.653727,3.656364,3.658348,3.660517,3.661424,3.662332,3.663282,3.665122,3.667225,3.668242,3.669542,3.670416,3.670912,3.672284,3.672412,3.673099,3.674251,3.676046,3.677841,3.681117,3.684616,3.688885,3.693525,3.697264,3.700347,3.701968,3.701434,3.698277,3.691368,3.680403,3.664665,3.644862,3.620873,3.593879,3.564433,3.53427,3.505363,3.475975,3.448029,3.42252,3.397081,3.372748,3.350143,3.328416,3.308264,3.289459,3.272674,3.257773,3.243618,3.230548,3.218747,3.207214,3.196396,3.186682,3.177686,3.169787,3.162733,3.156682,3.151414,3.146688,3.142445,3.138925,3.135593,3.13263,3.129978,3.127418,3.124959,3.122543,3.120046,3.117516,3.114596,3.111256,3.107288,3.102131,3.095961,3.089076,3.081581,3.074044,3.066602,3.059555,3.053083,3.046626,3.040228,3.033859,3.026773,3.018875,3.010221,3.000414,2.989613,2.977516,2.964512,2.951288,2.936892,2.922294,2.908262,2.893842,2.879511,2.865559,2.85195,2.838943,2.825959,2.813506,2.801753,2.789719,2.777835,2.76645,2.754915,2.743595,2.732446,2.721879,2.71203,2.702547,2.69395,2.686766,2.680517,2.67586,2.67352,2.673028,2.674343,2.677493,2.683408,2.692881,2.707796,2.728337,2.756718,2.791762,2.83661,2.889814,2.94754,3.011599,3.075854,3.131262,3.1797,3.219778,3.254045,3.284089,3.311094,3.336675,3.359861,3.378618,3.395549,3.411632,3.429228,3.45218,3.48087,3.51718,3.557738,3.598321,3.639799,3.679469,3.715186,3.749133,3.78266,3.819815,3.863827,3.91327,3.97108,4.032438,4.088021,4.136833,4.175027,4.207971,4.243133,4.284873,4.338035,4.396228,4.44845,4.492315,4.518414,4.528825,4.523294,4.50222,4.460886,4.396935,4.312304,4.206523,4.084339,3.96106,3.840528,3.729501,3.627586,3.533715,3.452253,3.375695,3.304389,3.240823,3.181394,3.126909,3.076732,3.030204,2.989493,2.951498,2.916372,2.885659,2.857302,2.831837,2.808979,2.7882,2.770269,2.753726,2.738377,2.724977,2.712668,2.701842,2.692821,2.685585,2.680511,2.677216,2.675655,2.675516,2.676049,2.676335,2.675252,2.671855,2.665793,2.657104,2.64649,2.635579,2.624655,2.614553,2.605762,2.598307,2.592768,2.588671,2.586226,2.585651,2.587599,2.592675,2.60236,2.617563,2.638808,2.667286,2.705291,2.749929,2.803764,2.862332,2.926956,2.99577,3.061434,3.12802,3.194156,3.256589,3.317024,3.371545,3.420439,3.465402,3.505362,3.546071,3.588313,3.63148,3.677593,3.724314,3.774242,3.82806,3.882219,3.940096,3.999424,4.061723,4.129328,4.195392,4.259681,4.305328,4.318526,4.291386,4.243231,4.194177,4.161855,4.155437,4.168525,4.195599,4.225062,4.249774,4.26437,4.271276,4.273594,4.275525,4.277398,4.278526,4.277639,4.272641,4.261585,4.245721,4.225881,4.203187,4.176664,4.147948,4.116848,4.086334,4.060172,4.038772,4.022676,4.01055,4.000175,3.99164,3.982399,3.971611,3.95929,3.944349,3.928187,3.910368,3.891981,3.874044,3.8564,3.839435,3.822178,3.804398,3.786674,3.7682,3.749479,3.731124,3.713371,3.697622,3.682803,3.669632,3.658121,3.648415,3.640118,3.632337,3.624752,3.617885,3.61169,3.607733,3.605076,3.605381,3.608741,3.615427,3.625165,3.638178,3.654609,3.673117,3.69428,3.717683,3.74193,3.766635,3.789991,3.81191,3.831469,3.848425,3.86501,3.882614,3.906039,3.93664,3.974892,4.022911,4.077565,4.140525,4.21098,4.281917,4.35723,4.430047,4.497617,4.55458,4.592667,4.616162,4.622716,4.612354,4.587057,4.554509,4.516921,4.480121,4.451504,4.43614,4.43297,4.44489,4.470103,4.502736,4.529275,4.536908,4.512055,4.45734,4.389493,4.322129,4.267714,4.225545,4.196842,4.179104,4.166604,4.157356,4.14781,4.140656,4.138017,4.13938,4.146657,4.159118,4.177451,4.200776,4.229118,4.260086,4.299654,4.354676,4.433465,4.546808,4.694896,4.886217,5.102435,5.306126,5.468328,5.550694,5.581089,5.583391,5.5923,5.595289,5.603229,5.61097,5.608175,5.597306,5.577082,5.562465,5.546525,5.5313,5.518634,5.500004,5.471311,5.44208,5.412459,5.373682,5.343761,5.303936,5.267092,5.225754,5.20264,5.162446,5.13295,5.100195,5.07746,5.040723,5.021938,4.991276,4.969958,4.960148,4.943993,4.946711,4.951755,4.954622,4.926909,4.911661,4.888107,4.852669,4.828532,4.794167,4.761414,4.725652,4.702706,4.673178,4.644086,4.626901,4.597789,4.574403,4.585252,4.566954,4.532883,4.52241,4.516382,4.573576,4.454755,4.391984,4.365682,4.332495,4.305984,4.268432,4.267055,4.240509,4.182768,4.159222,4.122933,4.124422,4.081107,4.021287,4.000838,3.977475,3.971256,3.955594,3.996467,4.042063,4.103338,4.108425,4.160039,4.177421,4.534791,4.246314,4.277345,4.20112,4.374828,4.353668,4.421365,4.637922,4.415896,4.375744,4.355169,4.32535,4.298344,4.152473,4.133276,4.242306,4.257467,4.209985,4.130455,4.133617,4.192604,4.10603,4.185916,4.037763,4.044999,4.101737,3.996046,4.079237,3.998667,3.977861,4.046863,3.974323,4.135547,4.089758,3.908212,3.977576,3.90385,4.116578
2.964237,2.967407,2.971187,2.981555,2.994416,3.00664,3.029504,3.054835,3.070327,3.084976,3.102807,3.128112,3.147282,3.161398,3.172425,3.178777,3.182041,3.183533,3.186743,3.195914,3.205899,3.213673,3.219022,3.223587,3.231139,3.238103,3.250794,3.266431,3.278972,3.293669,3.307675,3.329901,3.367989,3.388903,3.425061,3.449392,3.470542,3.49252,3.515157,3.54343,3.577614,3.6079,3.628772,3.6493,3.667668,3.687394,3.706288,3.720813,3.734351,3.741706,3.745527,3.749012,3.751535,3.750582,3.73458,3.714703,3.708312,3.69972,3.681628,3.663521,3.636368,3.623327,3.603894,3.58404,3.571169,3.55589,3.53727,3.525212,3.511992,3.505654,3.489725,3.481225,3.47655,3.469296,3.459227,3.454307,3.448492,3.443127,3.441602,3.43942,3.434364,3.43447,3.43002,3.428008,3.430301,3.431188,3.433701,3.435831,3.439312,3.441752,3.444924,3.450706,3.456101,3.461172,3.46678,3.471884,3.478868,3.486093,3.491921,3.497058,3.503485,3.507903,3.512079,3.516543,3.521858,3.525713,3.530899,3.535551,3.539568,3.5444,3.549554,3.554877,3.560022,3.564803,3.570513,3.574211,3.577918,3.583467,3.588571,3.591677,3.594498,3.598175,3.60304,3.608161,3.611888,3.614879,3.619346,3.625006,3.630043,3.634043,3.640447,3.643231,3.64773,3.652715,3.654187,3.655892,3.657759,3.657994,3.65801,3.658334,3.657847,3.657551,3.657634,3.656793,3.655743,3.655038,3.653563,3.651785,3.649365,3.648123,3.64564,3.644556,3.644813,3.644278,3.644608,3.644876,3.645756,3.646494,3.647117,3.645335,3.643077,3.637815,3.630316,3.619318,3.604776,3.586659,3.565398,3.541492,3.515702,3.488966,3.463524,3.43731,3.412131,3.388751,3.365374,3.342718,3.321465,3.300887,3.281328,3.262663,3.245785,3.230441,3.215475,3.201367,3.188636,3.175716,3.163593,3.152438,3.141855,3.132189,3.123108,3.115086,3.107775,3.100697,3.094123,3.088194,3.082421,3.076897,3.071802,3.06676,3.061814,3.056901,3.051966,3.047135,3.041883,3.036347,3.030393,3.023367,3.01556,3.007276,2.998518,2.989782,2.981125,2.972869,2.965054,2.957111,2.949264,2.941562,2.933201,2.924159,2.914455,2.903796,2.892343,2.879797,2.866591,2.853335,2.839042,2.824681,2.810902,2.79669,2.782687,2.768972,2.755502,2.742554,2.729549,2.71694,2.705035,2.692741,2.680638,2.668954,2.65708,2.645452,2.633975,2.623042,2.612792,2.602787,2.593623,2.585703,2.578492,2.572656,2.56885,2.566457,2.565548,2.566201,2.569153,2.574765,2.584671,2.599214,2.620216,2.647028,2.682053,2.723811,2.769539,2.820232,2.871578,2.91721,2.957157,2.990026,3.018038,3.042266,3.063893,3.084205,3.102321,3.116729,3.129603,3.141961,3.155849,3.174377,3.197661,3.227198,3.260224,3.293427,3.32736,3.35942,3.38817,3.41552,3.442858,3.473703,3.510718,3.552681,3.60181,3.652874,3.698743,3.73832,3.769723,3.797779,3.828322,3.865304,3.912756,3.964249,4.0092,4.046201,4.067919,4.075861,4.06951,4.050876,4.013697,3.958398,3.884936,3.794371,3.691677,3.588397,3.486884,3.39259,3.305233,3.225199,3.155602,3.090374,3.029971,2.975976,2.925317,2.878779,2.835688,2.795791,2.760726,2.72798,2.697746,2.67122,2.646702,2.624581,2.604636,2.58655,2.57086,2.556406,2.543019,2.531246,2.520396,2.510786,2.502638,2.496047,2.491358,2.488307,2.486756,2.486474,2.486728,2.486789,2.485748,2.482797,2.477864,2.470784,2.461963,2.452722,2.443341,2.434472,2.426659,2.41994,2.414895,2.411124,2.408875,2.408206,2.409617,2.413394,2.420702,2.432507,2.449351,2.472475,2.503845,2.541127,2.586051,2.635123,2.689219,2.74665,2.80192,2.858194,2.914446,2.967828,3.019556,3.066646,3.109033,3.147848,3.182269,3.216888,3.252842,3.289752,3.32891,3.368571,3.410945,3.456447,3.502605,3.551637,3.602145,3.655895,3.714959,3.773635,3.830811,3.871675,3.883193,3.857207,3.813504,3.767932,3.73745,3.731428,3.742345,3.765412,3.790861,3.812083,3.824418,3.830255,3.832368,3.834278,3.836762,3.837896,3.837837,3.833486,3.824577,3.811397,3.795319,3.776448,3.753824,3.729401,3.703022,3.67636,3.653785,3.635274,3.621197,3.610688,3.601459,3.593545,3.585567,3.576322,3.565274,3.552286,3.538173,3.522725,3.506498,3.491266,3.475599,3.461162,3.446322,3.431027,3.416055,3.400562,3.384803,3.369544,3.354534,3.341344,3.328989,3.317829,3.308322,3.300021,3.292585,3.285902,3.279146,3.272825,3.267332,3.263115,3.261092,3.261058,3.264101,3.269613,3.278032,3.288825,3.302721,3.318567,3.336636,3.356531,3.377044,3.398412,3.417977,3.436746,3.453641,3.468115,3.482654,3.498207,3.518806,3.545674,3.579241,3.620685,3.66815,3.722803,3.783179,3.845036,3.908201,3.970684,4.027299,4.07537,4.106932,4.126176,4.130771,4.121853,4.100517,4.071364,4.037819,4.005967,3.981352,3.967999,3.965481,3.975934,3.998364,4.025809,4.049228,4.056104,4.034028,3.987212,3.928588,3.871128,3.822247,3.785606,3.760654,3.745461,3.734452,3.726331,3.718942,3.712747,3.710381,3.712229,3.718391,3.729663,3.74578,3.766415,3.791356,3.818948,3.85458,3.904289,3.977173,4.083943,4.224607,4.408551,4.626825,4.840239,5.034351,5.154924,5.184772,5.202952,5.233265,5.269834,5.305525,5.362123,5.372969,5.370452,5.35246,5.335622,5.331961,5.344225,5.362602,5.384458,5.416277,5.38189,5.37006,5.329943,5.293527,5.256686,5.231985,5.201061,5.168161,5.138184,5.110205,5.073286,5.041455,5.024377,4.990933,4.973866,4.942618,4.916223,4.899512,4.863858,4.855093,4.830522,4.813637,4.77993,4.764524,4.737251,4.705034,4.653597,4.624617,4.590887,4.565484,4.546432,4.525664,4.485775,4.482097,4.488155,4.485574,4.497027,4.468439,4.439276,4.447192,4.492033,4.390517,4.302832,4.285591,4.254301,4.228396,4.181758,4.167124,4.121099,4.116332,4.067529,4.022249,4.03281,4.007504,3.897058,3.894164,3.878966,3.862535,3.902505,3.916042,3.957021,3.988067,4.043705,4.067817,4.301256,4.254758,4.150281,4.142812,4.090492,4.19832,4.099231,4.269856,4.266127,4.138511,4.120427,4.135446,4.032182,4.586433,4.067659,4.030531,3.876117,4.058604,3.931344,4.008647,3.98029,3.975032,3.821542,3.802901,3.944207,3.97809,3.860928,3.950806,3.675246,3.841436,3.823766,3.68413,3.720165,3.729118,3.9202,3.681096,3.801127,3.755492,3.739495
3.215981,3.219635,3.224801,3.233063,3.245882,3.26177,3.278342,3.303366,3.323521,3.340842,3.35301,3.374228,3.393199,3.406894,3.419394,3.426881,3.43027,3.434972,3.443158,3.452259,3.460611,3.466283,3.468287,3.472995,3.480716,3.488251,3.499882,3.516222,3.532008,3.549687,3.567021,3.58813,3.621057,3.652251,3.678411,3.704722,3.736329,3.768173,3.796759,3.828437,3.862697,3.901184,3.926303,3.953722,3.984498,4.015883,4.045426,4.067021,4.086905,4.103469,4.120962,4.134616,4.141368,4.148349,4.152719,4.149652,4.136468,4.129677,4.11966,4.10091,4.079623,4.063178,4.046511,4.024073,4.01358,3.995831,3.97393,3.96452,3.949399,3.933839,3.923941,3.915793,3.914702,3.900795,3.892188,3.885586,3.883662,3.880318,3.8758,3.871978,3.870015,3.867359,3.867786,3.869635,3.872712,3.872825,3.877248,3.876825,3.877616,3.884151,3.889558,3.894845,3.905222,3.913727,3.920836,3.92829,3.936039,3.942273,3.948174,3.954304,3.961743,3.966311,3.969774,3.975393,3.979591,3.984981,3.99072,3.995111,3.999697,4.004633,4.008889,4.013548,4.017853,4.02157,4.028873,4.031201,4.035125,4.041099,4.046436,4.049769,4.053949,4.056099,4.062001,4.068079,4.07478,4.079987,4.085206,4.091768,4.098433,4.105853,4.11122,4.115124,4.119469,4.125083,4.129567,4.130113,4.130965,4.1347,4.137697,4.136831,4.137793,4.136944,4.137793,4.137402,4.135655,4.136747,4.133882,4.131462,4.128626,4.12631,4.125185,4.124986,4.123277,4.123418,4.122955,4.12479,4.125224,4.126062,4.126006,4.12442,4.121603,4.115999,4.107797,4.095466,4.079605,4.060456,4.036446,4.009624,3.980675,3.950964,3.922189,3.892529,3.863955,3.837421,3.810675,3.784978,3.760602,3.736907,3.714504,3.693223,3.673533,3.655615,3.638102,3.621309,3.605963,3.590766,3.576098,3.562484,3.549479,3.537506,3.526212,3.515877,3.506548,3.497305,3.48857,3.480698,3.47284,3.465353,3.45828,3.451238,3.44433,3.437305,3.430443,3.423638,3.416347,3.408786,3.400706,3.391357,3.381097,3.370427,3.359291,3.348168,3.337181,3.326685,3.316812,3.306685,3.296618,3.286781,3.276128,3.264729,3.252686,3.239578,3.22564,3.210471,3.194599,3.178763,3.161674,3.144534,3.128051,3.111065,3.094224,3.077727,3.061534,3.045879,3.030097,3.014761,3.000222,2.98524,2.970399,2.956146,2.94163,2.927354,2.913232,2.899667,2.886874,2.87423,2.862499,2.852237,2.842684,2.834657,2.828674,2.824995,2.822804,2.822342,2.824479,2.82961,2.840134,2.856399,2.880093,2.910213,2.949362,2.995811,3.045902,3.101043,3.155912,3.203259,3.244435,3.27825,3.307041,3.332218,3.354816,3.376138,3.39524,3.410381,3.423896,3.436686,3.451082,3.470475,3.495198,3.526853,3.562389,3.598088,3.634623,3.66923,3.700187,3.729456,3.758538,3.791173,3.830318,3.874747,3.926992,3.982065,4.03169,4.074716,4.108345,4.137587,4.170259,4.208857,4.25868,4.313471,4.36161,4.401017,4.424744,4.433341,4.427055,4.406907,4.367814,4.308196,4.229264,4.130391,4.016427,3.901023,3.788385,3.684426,3.588784,3.50101,3.424544,3.352628,3.285821,3.226199,3.170352,3.119104,3.071787,3.027955,2.989466,2.953479,2.920222,2.89105,2.864096,2.839826,2.817948,2.798051,2.780789,2.764813,2.749978,2.736916,2.72495,2.714327,2.705431,2.698262,2.693158,2.689746,2.687923,2.687476,2.68765,2.687579,2.686245,2.682725,2.676759,2.668304,2.658084,2.647568,2.637039,2.627281,2.618788,2.611534,2.606138,2.602067,2.599616,2.59894,2.60064,2.605323,2.614392,2.628695,2.648742,2.675652,2.711459,2.753595,2.804165,2.859124,2.919707,2.98382,3.045008,3.106989,3.168444,3.226475,3.282389,3.332878,3.377926,3.419352,3.456355,3.494044,3.533098,3.573191,3.615687,3.658729,3.704687,3.753927,3.80378,3.856652,3.910866,3.968373,4.030664,4.092371,4.152819,4.197341,4.212121,4.187229,4.143149,4.096959,4.065859,4.059756,4.072226,4.097606,4.125972,4.150056,4.164851,4.172429,4.176773,4.180126,4.184323,4.187589,4.18804,4.184746,4.175223,4.161103,4.143847,4.12313,4.09914,4.07267,4.043956,4.015712,3.991485,3.971701,3.956583,3.944953,3.935638,3.927132,3.918737,3.90869,3.897121,3.883231,3.867741,3.851099,3.833824,3.816954,3.800295,3.78413,3.767647,3.750765,3.733819,3.716029,3.698006,3.680478,3.663299,3.647934,3.633503,3.620632,3.60928,3.599701,3.591305,3.583462,3.575664,3.568592,3.562237,3.557341,3.554841,3.554269,3.557094,3.562601,3.570913,3.582464,3.59696,3.613529,3.632708,3.653872,3.675627,3.69818,3.719243,3.739478,3.75705,3.772643,3.787705,3.803926,3.82526,3.853595,3.888454,3.932179,3.982237,4.040222,4.104146,4.169913,4.238528,4.304723,4.365617,4.416548,4.45143,4.472217,4.477665,4.468375,4.445886,4.4158,4.379663,4.346196,4.320205,4.304715,4.30176,4.312681,4.335897,4.365675,4.390527,4.39747,4.375469,4.325632,4.263882,4.201534,4.149471,4.110382,4.08357,4.066885,4.055413,4.045834,4.037954,4.031241,4.028112,4.030099,4.035681,4.047833,4.064575,4.085952,4.111914,4.141562,4.178903,4.231162,4.304392,4.412882,4.557133,4.743369,4.961827,5.175187,5.361283,5.471776,5.489991,5.496551,5.522105,5.558218,5.577949,5.598762,5.605056,5.601419,5.593298,5.585122,5.565512,5.542121,5.542713,5.549583,5.554217,5.542953,5.520615,5.472767,5.451268,5.422741,5.387061,5.350348,5.325769,5.295424,5.257432,5.236218,5.206985,5.180678,5.152991,5.124229,5.096291,5.072826,5.046801,5.021171,5.005829,4.97188,4.947635,4.921037,4.891059,4.870427,4.826923,4.792817,4.753856,4.73806,4.698116,4.660907,4.657131,4.615755,4.595636,4.579747,4.604147,4.622574,4.562318,4.529367,4.509068,4.560901,4.459903,4.386351,4.350394,4.33476,4.317779,4.27083,4.284818,4.24731,4.209097,4.164883,4.118544,4.125477,4.08666,3.998193,3.958314,3.946835,3.946243,3.962318,3.995085,4.0233,4.079855,4.056099,4.095573,4.127749,4.45276,4.172801,4.173501,4.179564,4.277871,4.268626,4.391062,4.378536,4.275068,4.409886,4.441952,4.270202,4.839987,4.199395,4.144912,4.146346,4.112598,4.233202,4.193871,4.198235,4.223964,4.067435,4.094926,4.215608,3.871737,4.099356,4.060433,3.936354,4.001615,4.011403,4.103353,3.978013,3.883991,4.007692,4.119096,4.064012,3.954346,3.863641
3.092126,3.094706,3.099091,3.109574,3.121025,3.141482,3.155473,3.170277,3.202765,3.221943,3.236442,3.254751,3.275723,3.289965,3.303364,3.305191,3.309171,3.313961,3.323205,3.33347,3.341262,3.338557,3.335958,3.340436,3.34981,3.358842,3.370159,3.382803,3.400389,3.430032,3.445688,3.465734,3.498448,3.521405,3.548605,3.570346,3.600429,3.637605,3.668209,3.687294,3.711289,3.750116,3.776925,3.802035,3.829202,3.863987,3.888971,3.909213,3.923444,3.939237,3.946521,3.944242,3.939834,3.932205,3.924992,3.90676,3.895276,3.887954,3.86099,3.842207,3.830647,3.817048,3.793346,3.771337,3.755319,3.742628,3.720663,3.709571,3.695065,3.685637,3.672694,3.661327,3.656199,3.646894,3.643592,3.635183,3.629971,3.628224,3.624113,3.620826,3.620134,3.6217,3.617766,3.613477,3.612497,3.613676,3.618786,3.620083,3.619842,3.623682,3.631207,3.6388,3.644777,3.651174,3.659955,3.667002,3.673438,3.679051,3.684361,3.689404,3.695829,3.700636,3.7052,3.710968,3.716035,3.721472,3.726971,3.732348,3.737795,3.743636,3.748842,3.753665,3.758582,3.761461,3.767611,3.768073,3.770226,3.775785,3.781892,3.786905,3.792376,3.796532,3.800134,3.805045,3.81028,3.81591,3.822192,3.82678,3.830342,3.834989,3.840147,3.847052,3.850008,3.852186,3.85387,3.858344,3.861911,3.862118,3.863083,3.86266,3.862244,3.862634,3.862335,3.860503,3.861683,3.861113,3.857493,3.855627,3.854674,3.85242,3.850164,3.84926,3.848625,3.848665,3.847775,3.849797,3.849524,3.851182,3.851466,3.849868,3.847248,3.841493,3.833431,3.821983,3.80628,3.787916,3.765394,3.74045,3.712998,3.685029,3.657987,3.630237,3.603431,3.57895,3.554193,3.530383,3.508012,3.486278,3.465742,3.446229,3.428391,3.412306,3.396329,3.381482,3.367648,3.354051,3.340955,3.32902,3.317603,3.307142,3.297324,3.288464,3.28031,3.272511,3.265207,3.258662,3.252096,3.245991,3.240235,3.234582,3.229014,3.223446,3.217837,3.212386,3.206438,3.200214,3.193548,3.185793,3.177165,3.168094,3.158542,3.149001,3.139589,3.130576,3.122071,3.113478,3.104925,3.096539,3.087422,3.077667,3.067249,3.055883,3.043695,3.03042,3.016397,3.002275,2.987046,2.971757,2.957008,2.941833,2.926787,2.912058,2.897617,2.883726,2.869747,2.8562,2.84336,2.830118,2.817071,2.804527,2.791758,2.779263,2.766898,2.755044,2.743901,2.732938,2.722806,2.71405,2.705968,2.699312,2.694356,2.691743,2.690536,2.690937,2.693777,2.699643,2.710659,2.726907,2.750174,2.779505,2.81744,2.862513,2.911157,2.964626,3.017505,3.063094,3.10283,3.135515,3.163435,3.187883,3.209814,3.230553,3.249075,3.263858,3.277144,3.289842,3.304127,3.323438,3.347806,3.37886,3.413362,3.447723,3.482593,3.51554,3.545105,3.573188,3.601247,3.632898,3.671161,3.714636,3.765132,3.818038,3.865574,3.907001,3.939285,3.968121,3.999925,4.037817,4.086082,4.139049,4.18609,4.225338,4.248202,4.258428,4.250751,4.232514,4.194313,4.136963,4.061535,3.964568,3.853672,3.743121,3.635766,3.536945,3.445827,3.362276,3.289613,3.22171,3.158898,3.102809,3.050256,3.001985,2.957399,2.916145,2.879954,2.846125,2.814854,2.787474,2.762174,2.739331,2.718829,2.700181,2.683995,2.669014,2.655121,2.642905,2.631705,2.621794,2.613506,2.606872,2.602193,2.599119,2.597533,2.597237,2.597497,2.597538,2.596413,2.593196,2.587663,2.579813,2.570324,2.5605,2.550674,2.541613,2.533667,2.526865,2.521821,2.518018,2.515734,2.51509,2.516688,2.521163,2.529747,2.543208,2.562185,2.587682,2.621602,2.661557,2.709534,2.761796,2.819249,2.880099,2.938158,2.996968,3.055236,3.110392,3.163457,3.211351,3.254116,3.293411,3.328353,3.364171,3.401417,3.439564,3.480169,3.521275,3.565243,3.61232,3.660071,3.710891,3.762948,3.81839,3.878789,3.93872,3.996958,4.038928,4.052354,4.02852,3.985268,3.939918,3.909649,3.903623,3.915328,3.939193,3.966222,3.989053,4.002927,4.008619,4.011432,4.013753,4.016523,4.019293,4.020305,4.015007,4.005934,3.993188,3.975793,3.956168,3.932893,3.907238,3.879359,3.852079,3.828162,3.809018,3.79444,3.783249,3.773639,3.765827,3.757269,3.748151,3.736552,3.723354,3.708784,3.692607,3.675799,3.659741,3.644022,3.628842,3.613379,3.597341,3.581547,3.565077,3.548476,3.532157,3.516456,3.502381,3.489361,3.477419,3.46753,3.458807,3.451202,3.444134,3.4372,3.430568,3.425069,3.420661,3.418159,3.418522,3.421281,3.426938,3.435278,3.446669,3.460807,3.477034,3.495751,3.51624,3.537416,3.559443,3.579844,3.5993,3.616817,3.631582,3.646649,3.662626,3.683764,3.711113,3.745318,3.787767,3.836543,3.892352,3.954972,4.016725,4.083144,4.147198,4.206559,4.255847,4.28852,4.309274,4.314033,4.305747,4.283751,4.253293,4.219789,4.186527,4.160645,4.145787,4.143161,4.154058,4.176137,4.204662,4.229357,4.236372,4.215509,4.166459,4.10677,4.045981,3.995086,3.958136,3.931762,3.91593,3.904555,3.895503,3.887893,3.881815,3.878815,3.880547,3.886197,3.898099,3.914147,3.935571,3.96027,3.988233,4.024788,4.075345,4.149242,4.256396,4.398214,4.584394,4.802283,5.021943,5.216342,5.342236,5.366584,5.373983,5.389309,5.429891,5.476152,5.49496,5.507699,5.50911,5.501944,5.516067,5.539596,5.538813,5.529029,5.504369,5.485565,5.452215,5.418228,5.382534,5.345315,5.328093,5.281125,5.250098,5.221233,5.195254,5.164906,5.130111,5.102115,5.074279,5.034617,5.01677,5.00418,4.982655,4.968665,4.951844,4.945346,4.924219,4.904146,4.87656,4.858923,4.820639,4.788205,4.753881,4.721852,4.695866,4.65554,4.644993,4.603324,4.579917,4.575393,4.556244,4.557698,4.546959,4.525428,4.505556,4.475728,4.50058,4.406532,4.373926,4.330027,4.309032,4.280494,4.235484,4.231201,4.197629,4.164676,4.114171,4.075006,4.078518,4.036181,3.987829,3.974494,3.946262,3.94889,3.929712,3.948117,3.954875,3.952083,3.957733,3.984349,4.29756,4.325004,4.053786,4.041624,4.130714,4.153543,4.100021,4.241181,4.439953,4.126486,4.259875,4.086946,4.276751,4.764672,4.016911,4.003016,4.076828,4.003333,4.060154,4.123121,3.977155,3.967724,3.911779,3.995655,3.891493,4.123329,3.833923,3.971916,3.842231,3.845651,3.860338,3.915104,3.866393,3.738213,3.61977,3.844791,3.81675,3.890795,3.674158
2.975859,2.979825,2.982565,2.990909,3.001553,3.024902,3.039118,3.059645,3.077762,3.093045,3.108016,3.125776,3.14069,3.152846,3.163831,3.170435,3.177963,3.184643,3.191801,3.197743,3.204223,3.208173,3.210885,3.215342,3.223274,3.231673,3.241658,3.251039,3.260476,3.277522,3.295602,3.311356,3.331853,3.350259,3.379587,3.403679,3.422757,3.43802,3.451705,3.467429,3.486721,3.507693,3.523325,3.539925,3.545559,3.552683,3.554284,3.554277,3.558545,3.562939,3.560086,3.550758,3.540103,3.531981,3.519262,3.509823,3.490945,3.475282,3.462257,3.445374,3.431114,3.413446,3.394535,3.382178,3.365541,3.354925,3.340723,3.329528,3.317584,3.308601,3.299407,3.291203,3.285674,3.279204,3.273804,3.268197,3.265187,3.26073,3.25751,3.253439,3.249653,3.246778,3.245073,3.241759,3.241592,3.240383,3.241534,3.241737,3.240852,3.244171,3.247237,3.251055,3.255017,3.258979,3.262428,3.265788,3.270542,3.275874,3.280499,3.285469,3.290297,3.294007,3.298062,3.302904,3.307167,3.311742,3.316296,3.321034,3.326274,3.330421,3.333802,3.337522,3.341916,3.346079,3.350339,3.353945,3.358131,3.360891,3.363412,3.367078,3.369302,3.373538,3.377076,3.380168,3.383374,3.387475,3.391066,3.396002,3.401071,3.405701,3.41079,3.415489,3.419985,3.42316,3.42618,3.428271,3.429261,3.431343,3.431898,3.431782,3.432896,3.433256,3.433872,3.4348,3.435231,3.436176,3.435875,3.437519,3.436933,3.437145,3.437349,3.438577,3.439993,3.441897,3.44507,3.448076,3.451391,3.454571,3.457031,3.457778,3.456394,3.452944,3.446223,3.436303,3.422301,3.405209,3.384732,3.361712,3.336397,3.310416,3.285509,3.260011,3.235656,3.213407,3.191419,3.170337,3.150729,3.131757,3.114003,3.097406,3.082521,3.069336,3.056831,3.045236,3.03487,3.024666,3.01512,3.006523,2.998541,2.991545,2.985235,2.979853,2.975214,2.970995,2.96728,2.964169,2.961322,2.958679,2.956343,2.954059,2.95188,2.949698,2.94749,2.945233,2.942653,2.939784,2.936363,2.932029,2.926856,2.921064,2.914728,2.90825,2.901842,2.895761,2.890129,2.884474,2.878883,2.873347,2.867231,2.860418,2.852933,2.844484,2.835145,2.824682,2.813399,2.801922,2.789446,2.77679,2.764672,2.752165,2.739785,2.727715,2.715963,2.704705,2.693491,2.682704,2.672554,2.662168,2.651937,2.642154,2.632228,2.622539,2.613048,2.604032,2.595651,2.587588,2.580324,2.574277,2.569026,2.565129,2.563006,2.562889,2.564264,2.567293,2.572957,2.581662,2.595209,2.613835,2.639561,2.671356,2.712051,2.760401,2.812566,2.870262,2.927581,2.976751,3.019637,3.054998,3.085086,3.111404,3.134876,3.156889,3.176532,3.19218,3.206427,3.220228,3.235825,3.256578,3.282295,3.314269,3.349357,3.384105,3.419425,3.453001,3.48311,3.512195,3.54146,3.574692,3.614334,3.658908,3.710471,3.764126,3.812045,3.854124,3.888338,3.918119,3.951457,3.990638,4.040554,4.094125,4.140749,4.178716,4.19946,4.206178,4.19721,4.174623,4.134649,4.075568,3.996314,3.897907,3.787525,3.678587,3.572539,3.474692,3.384386,3.301364,3.229546,3.162501,3.100364,3.045049,2.993207,2.945687,2.901996,2.861495,2.826088,2.793112,2.762648,2.736076,2.711589,2.689533,2.669864,2.652062,2.636753,2.622649,2.60961,2.598224,2.587811,2.578675,2.571135,2.565223,2.561265,2.558923,2.55798,2.558249,2.559061,2.559644,2.558946,2.556023,2.550768,2.543311,2.534091,2.524546,2.51501,2.506155,2.498493,2.491996,2.487281,2.483862,2.481903,2.481534,2.483596,2.488418,2.497288,2.511179,2.530591,2.556619,2.591316,2.632093,2.681109,2.734514,2.793158,2.855292,2.914442,2.974273,3.033512,3.089153,3.142741,3.19095,3.233968,3.273642,3.309122,3.345611,3.383648,3.422461,3.463662,3.505297,3.549642,3.597206,3.645537,3.696987,3.750102,3.806716,3.868432,3.929475,3.988511,4.030209,4.042477,4.016031,3.970953,3.924685,3.893365,3.886457,3.897331,3.920722,3.946261,3.967394,3.979247,3.98405,3.985955,3.987567,3.98893,3.99094,3.98961,3.98351,3.972485,3.957124,3.937476,3.915645,3.890618,3.862935,3.834075,3.806013,3.781675,3.762061,3.747225,3.735963,3.726231,3.718023,3.709564,3.699618,3.687872,3.673986,3.658987,3.642627,3.625763,3.609426,3.593486,3.578279,3.562612,3.546705,3.530964,3.514528,3.49812,3.482334,3.466907,3.453332,3.440593,3.429639,3.420509,3.412342,3.405682,3.399395,3.393342,3.38766,3.382633,3.379094,3.377907,3.378679,3.382535,3.389097,3.398826,3.411199,3.426547,3.444152,3.464078,3.48606,3.508574,3.531545,3.553111,3.573102,3.591136,3.606737,3.622494,3.639123,3.660956,3.689598,3.72541,3.769758,3.820705,3.879508,3.94484,4.010261,4.080141,4.148178,4.211073,4.263635,4.300024,4.322706,4.329417,4.321501,4.301388,4.271674,4.237373,4.204913,4.179022,4.165307,4.163796,4.17561,4.200647,4.2308,4.255352,4.262985,4.240037,4.18838,4.125741,4.06299,4.011071,3.973128,3.947387,3.931305,3.920656,3.911876,3.904315,3.898971,3.896668,3.898795,3.906294,3.919074,3.936999,3.959978,3.986679,4.01757,4.056355,4.109452,4.185546,4.296673,4.442639,4.631834,4.849619,5.058607,5.244082,5.358066,5.378858,5.379277,5.39637,5.416485,5.459987,5.47561,5.480294,5.464057,5.450711,5.437278,5.42378,5.42356,5.442224,5.445951,5.464731,5.443178,5.412623,5.390053,5.343129,5.311556,5.275099,5.249695,5.208574,5.17928,5.145657,5.113998,5.079998,5.056343,5.028339,5.007008,4.977528,4.948825,4.931547,4.908376,4.885093,4.848387,4.846247,4.816356,4.78711,4.751361,4.706409,4.678827,4.661816,4.628612,4.606193,4.576128,4.546966,4.524724,4.502415,4.507595,4.514735,4.519517,4.515751,4.509356,4.477293,4.535319,4.434782,4.351225,4.347601,4.312386,4.266854,4.237844,4.21846,4.218369,4.159093,4.099527,4.078885,4.074095,4.033674,3.957763,3.939063,3.912901,3.9372,3.925983,3.96979,4.010221,4.039369,4.061723,4.098979,4.306119,4.352297,4.168432,4.157684,4.115616,4.120031,4.110714,4.124172,4.255279,4.173415,4.210543,4.265246,4.134573,4.698358,4.067928,4.043514,4.162798,4.029915,4.080649,4.02095,4.15481,4.154878,3.976805,3.940271,3.883551,3.898291,3.882258,3.849047,3.817292,3.889344,4.10672,3.793847,3.862629,3.819756,3.658994,3.794686,3.873447,3.744754,3.855341
2.879263,2.883975,2.886988,2.896002,2.905919,2.922312,2.945882,2.9596,2.979982,2.996183,3.012324,3.026648,3.039102,3.051881,3.062568,3.070853,3.080823,3.08687,3.092986,3.10036,3.106415,3.107377,3.112318,3.120739,3.129419,3.135996,3.145934,3.156812,3.165665,3.176628,3.190813,3.211408,3.230924,3.249859,3.269486,3.295308,3.313371,3.332657,3.351305,3.364216,3.377516,3.389719,3.400952,3.412586,3.420788,3.429905,3.434641,3.435194,3.433414,3.427584,3.42101,3.416411,3.408156,3.399564,3.383539,3.369412,3.35745,3.339104,3.326074,3.310209,3.291664,3.276288,3.261966,3.246201,3.233714,3.218393,3.205472,3.196708,3.184036,3.174382,3.16643,3.159832,3.152445,3.145864,3.140051,3.136621,3.13096,3.127489,3.125874,3.120608,3.117343,3.114127,3.112135,3.108417,3.108547,3.108087,3.106932,3.107429,3.108716,3.109803,3.111624,3.115808,3.120496,3.124628,3.127387,3.131655,3.136285,3.141008,3.145192,3.150006,3.15456,3.158574,3.16178,3.16549,3.169713,3.174435,3.178898,3.183482,3.188152,3.192768,3.196764,3.200377,3.204669,3.207059,3.211623,3.215573,3.218607,3.221426,3.225214,3.228641,3.23244,3.234489,3.237818,3.241233,3.244666,3.248301,3.251878,3.255827,3.260543,3.265505,3.269864,3.273764,3.278414,3.281386,3.283289,3.286115,3.28795,3.288742,3.290227,3.290344,3.291051,3.291756,3.293318,3.295821,3.296444,3.2975,3.298547,3.29903,3.300331,3.301342,3.302618,3.304351,3.3068,3.309388,3.31212,3.315915,3.319754,3.323591,3.326381,3.328481,3.328837,3.32687,3.322161,3.313848,3.301372,3.285075,3.264838,3.241715,3.216114,3.189375,3.163625,3.137235,3.112005,3.089295,3.067061,3.045952,3.026533,3.008034,2.990973,2.975002,2.960653,2.94783,2.935621,2.924266,2.914096,2.904177,2.89494,2.886685,2.879036,2.872374,2.866425,2.861378,2.857067,2.853268,2.849908,2.847139,2.844621,2.842454,2.840605,2.838897,2.837311,2.835826,2.834364,2.832854,2.831091,2.828982,2.82624,2.822469,2.817796,2.812402,2.806467,2.800433,2.794488,2.788921,2.783859,2.77886,2.773963,2.769121,2.763645,2.75743,2.750433,2.742373,2.733352,2.723171,2.712154,2.700975,2.688816,2.676515,2.664737,2.652555,2.640505,2.628782,2.617345,2.606421,2.595545,2.585092,2.575275,2.565209,2.555254,2.545713,2.536006,2.526509,2.517211,2.508394,2.500236,2.492413,2.485394,2.479596,2.474622,2.470985,2.46931,2.468961,2.47018,2.472935,2.477835,2.485361,2.497139,2.513393,2.536156,2.564642,2.601501,2.645473,2.693316,2.746429,2.800555,2.848853,2.891884,2.928233,2.959868,2.987854,3.013253,3.037535,3.059602,3.077541,3.093786,3.109271,3.126089,3.147784,3.174514,3.208365,3.246415,3.284992,3.324775,3.362752,3.396674,3.428725,3.460407,3.495457,3.536864,3.583336,3.637533,3.694186,3.744992,3.78895,3.823117,3.852046,3.884351,3.922035,3.970997,4.024234,4.074155,4.116767,4.1459,4.161578,4.162113,4.149049,4.115263,4.061055,3.986511,3.892806,3.78439,3.675003,3.567103,3.466718,3.373703,3.288072,3.213762,3.144023,3.079222,3.021294,2.967046,2.917027,2.870904,2.828032,2.790424,2.755266,2.722798,2.694417,2.668106,2.644349,2.623,2.603549,2.586697,2.571132,2.556656,2.543967,2.532279,2.521857,2.513096,2.505976,2.500896,2.497511,2.495585,2.494904,2.494698,2.494281,2.492761,2.489405,2.484195,2.476948,2.468066,2.458808,2.44944,2.440637,2.432821,2.426034,2.420951,2.417149,2.414872,2.414255,2.415743,2.419598,2.42709,2.439083,2.45613,2.479459,2.511092,2.548581,2.594046,2.64371,2.698609,2.757322,2.814129,2.872396,2.931452,2.988024,3.043734,3.094965,3.14144,3.18404,3.221263,3.258542,3.297067,3.336672,3.379403,3.423161,3.470159,3.52074,3.571745,3.625519,3.68037,3.737787,3.799613,3.859789,3.918899,3.959861,3.973345,3.951015,3.911135,3.867404,3.837821,3.83179,3.843947,3.868738,3.896764,3.9203,3.934933,3.942641,3.946117,3.949132,3.951741,3.953329,3.95298,3.949328,3.939663,3.925533,3.907881,3.888561,3.864002,3.837707,3.809036,3.781,3.756585,3.736871,3.722008,3.710908,3.701288,3.693478,3.685362,3.676023,3.665474,3.652453,3.638173,3.622709,3.606149,3.590499,3.574732,3.559707,3.54451,3.528758,3.513337,3.497095,3.480862,3.464568,3.449197,3.435205,3.422327,3.410643,3.40051,3.392039,3.384943,3.377953,3.371459,3.365215,3.360196,3.356275,3.354903,3.355943,3.359459,3.365849,3.375126,3.386924,3.401921,3.418858,3.437955,3.459029,3.480846,3.50339,3.524501,3.544542,3.562499,3.577598,3.592561,3.607682,3.628352,3.655355,3.688728,3.730646,3.778556,3.834019,3.894175,3.956054,4.021275,4.084463,4.141417,4.190096,4.222197,4.242428,4.246844,4.239243,4.21775,4.191003,4.158153,4.128868,4.104174,4.093518,4.092534,4.104478,4.128973,4.157532,4.182059,4.188373,4.168875,4.122756,4.064871,4.006738,3.958344,3.921667,3.896306,3.881152,3.869879,3.861244,3.853069,3.846061,3.842997,3.843538,3.848891,3.859567,3.874269,3.893674,3.91824,3.945709,3.981886,4.031668,4.105446,4.211452,4.352323,4.535012,4.747338,4.956367,5.132011,5.243224,5.276929,5.27928,5.291541,5.31646,5.347359,5.380569,5.403765,5.391798,5.375042,5.359429,5.348249,5.340447,5.339372,5.338151,5.33612,5.33056,5.319562,5.301826,5.26506,5.223159,5.183156,5.134761,5.089553,5.085302,5.057817,5.035937,5.012244,4.966835,4.942235,4.920527,4.891877,4.896032,4.876884,4.883735,4.854939,4.841036,4.822366,4.791285,4.765692,4.72722,4.702866,4.676685,4.635638,4.597702,4.578087,4.547605,4.520902,4.487029,4.466982,4.458918,4.4698,4.431412,4.436674,4.420408,4.386733,4.445625,4.350245,4.303071,4.275701,4.24396,4.22203,4.179122,4.164328,4.139089,4.077916,4.035086,3.999914,4.017203,3.998984,3.901916,3.884798,3.86768,3.869957,3.895633,3.942042,3.981664,4.031929,4.103661,4.158067,4.335474,4.503056,4.340328,4.324262,4.296276,4.443788,4.454344,4.525947,4.418606,4.353945,4.339096,4.367532,4.301284,5.080941,4.301664,4.27745,4.145324,4.286469,4.255802,4.245985,4.237737,4.181431,4.062813,4.216105,4.25862,4.041272,4.050159,4.209021,4.041932,4.063633,4.114141,3.938706,3.919026,4.072946,4.018421,3.920464,4.027647,3.789059,3.858152
3.014985,3.018931,3.023806,3.032903,3.046645,3.064294,3.080646,3.099284,3.121254,3.143929,3.161995,3.175445,3.187536,3.200233,3.212055,3.22136,3.231989,3.239952,3.245722,3.248972,3.254658,3.261077,3.260846,3.266901,3.275908,3.284863,3.294904,3.306446,3.322923,3.342638,3.36264,3.38832,3.403956,3.427237,3.46693,3.487897,3.521289,3.544644,3.566786,3.586837,3.607888,3.624832,3.645867,3.67169,3.695317,3.719163,3.732102,3.742579,3.750545,3.751272,3.751247,3.745005,3.746566,3.743883,3.739361,3.72579,3.71054,3.682158,3.675429,3.658245,3.635737,3.623629,3.606018,3.589942,3.572276,3.558642,3.543355,3.532048,3.523276,3.506644,3.495726,3.486733,3.481632,3.474158,3.462934,3.460782,3.457426,3.4544,3.448779,3.444536,3.442702,3.437695,3.435789,3.43339,3.434121,3.43608,3.436313,3.435945,3.43776,3.439479,3.443634,3.448438,3.454795,3.457465,3.463573,3.468894,3.474638,3.48008,3.485034,3.490281,3.495793,3.499984,3.504554,3.509274,3.514088,3.518921,3.524465,3.529281,3.534171,3.538647,3.542617,3.546221,3.550573,3.555961,3.561813,3.562606,3.564784,3.569966,3.574776,3.579266,3.582629,3.586569,3.589894,3.593735,3.59813,3.601879,3.607309,3.609054,3.614752,3.618841,3.624161,3.627478,3.632046,3.634638,3.637417,3.639616,3.639942,3.641823,3.641351,3.642499,3.64229,3.641928,3.641059,3.642317,3.642266,3.643771,3.641567,3.641809,3.640257,3.640624,3.639776,3.640854,3.641124,3.641747,3.642808,3.644235,3.646453,3.647793,3.649937,3.651871,3.649626,3.647122,3.64127,3.632278,3.619194,3.602357,3.581517,3.557765,3.531467,3.504248,3.477836,3.450632,3.424468,3.400643,3.376991,3.354217,3.332975,3.312425,3.293202,3.275116,3.25859,3.243663,3.229279,3.215751,3.203511,3.191429,3.179965,3.169442,3.159475,3.15042,3.142005,3.134532,3.127795,3.121386,3.115476,3.110273,3.105211,3.100523,3.096251,3.092154,3.08825,3.084353,3.080628,3.076984,3.07299,3.068597,3.06378,3.057851,3.050917,3.043401,3.035334,3.027192,3.01924,3.011608,3.004552,2.997535,2.990683,2.983989,2.976681,2.968624,2.959911,2.95018,2.939529,2.927701,2.915088,2.902346,2.888558,2.874696,2.861288,2.847485,2.833735,2.820287,2.807116,2.794439,2.78176,2.769501,2.757871,2.74594,2.734092,2.722702,2.711077,2.69963,2.688316,2.677416,2.66717,2.657112,2.647825,2.639786,2.632416,2.626318,2.621576,2.619258,2.618201,2.618578,2.62115,2.626459,2.636377,2.650932,2.671759,2.69801,2.732049,2.772651,2.816473,2.86491,2.91315,2.955365,2.993142,3.025428,3.054075,3.080098,3.104073,3.127083,3.148025,3.16515,3.180837,3.195869,3.212515,3.234438,3.261785,3.296347,3.335113,3.373993,3.413902,3.451848,3.485606,3.517543,3.549242,3.584472,3.626324,3.673225,3.727644,3.784078,3.834621,3.878708,3.912483,3.940947,3.97155,4.007241,4.05486,4.107725,4.157995,4.203795,4.236286,4.256951,4.261738,4.253126,4.224215,4.172776,4.09937,4.003805,3.890558,3.776627,3.665101,3.562183,3.467355,3.379981,3.304173,3.233074,3.167241,3.108518,3.053347,3.002675,2.955828,2.912342,2.874108,2.838437,2.805407,2.776437,2.749638,2.725422,2.703543,2.683634,2.666282,2.650222,2.635254,2.622085,2.609928,2.599135,2.589871,2.582231,2.576504,2.572276,2.569383,2.567656,2.566498,2.565254,2.563018,2.558953,2.553028,2.545226,2.535882,2.526365,2.516851,2.507968,2.500152,2.493445,2.488372,2.484534,2.482087,2.481225,2.482487,2.486422,2.494148,2.506433,2.523726,2.546934,2.578043,2.614712,2.659015,2.707382,2.760957,2.818178,2.873658,2.93062,2.988514,3.044309,3.099338,3.149814,3.195406,3.237203,3.273791,3.310359,3.34823,3.387669,3.430658,3.475084,3.523126,3.574686,3.62632,3.680645,3.736093,3.794962,3.85964,3.924984,3.99038,4.040535,4.061581,4.039204,3.996535,3.948432,3.914993,3.906441,3.916389,3.940925,3.969786,3.997616,4.014109,4.025537,4.031326,4.035432,4.038736,4.042125,4.042951,4.039602,4.030657,4.018016,4.001822,3.983468,3.960367,3.935215,3.90716,3.879416,3.855267,3.835809,3.820947,3.809273,3.799576,3.791799,3.784369,3.775089,3.764668,3.752087,3.738668,3.722727,3.706702,3.690527,3.67494,3.659776,3.644097,3.627928,3.611937,3.594893,3.577734,3.560502,3.54386,3.528842,3.514635,3.501707,3.490592,3.480347,3.47178,3.463532,3.455704,3.448638,3.442425,3.437712,3.435621,3.435302,3.437937,3.44352,3.45163,3.462312,3.475994,3.491801,3.509511,3.529346,3.549649,3.571082,3.591322,3.610715,3.62737,3.641631,3.655228,3.668949,3.687552,3.712449,3.743814,3.78279,3.82776,3.879856,3.93751,3.995083,4.055918,4.115705,4.16933,4.215225,4.245018,4.264504,4.268577,4.261,4.240962,4.214472,4.18269,4.154111,4.132428,4.11949,4.118896,4.130638,4.153016,4.181229,4.206192,4.214763,4.195786,4.152971,4.098783,4.043768,3.996963,3.963105,3.938231,3.922663,3.910953,3.902332,3.893014,3.885888,3.882079,3.881984,3.885809,3.895152,3.908676,3.9268,3.948874,3.973526,4.007219,4.054535,4.124075,4.226332,4.362463,4.53954,4.749727,4.959077,5.134516,5.252878,5.289159,5.307558,5.325358,5.359232,5.406647,5.452375,5.462429,5.455893,5.451639,5.444053,5.442723,5.463554,5.490936,5.503939,5.481067,5.455124,5.424354,5.381834,5.349994,5.320769,5.284904,5.246851,5.22743,5.185843,5.157658,5.12313,5.094584,5.069385,5.037663,5.008832,4.978915,4.960386,4.927676,4.913134,4.907073,4.886681,4.860297,4.839062,4.821477,4.784592,4.75882,4.731781,4.691619,4.65063,4.635583,4.607022,4.580453,4.56309,4.547679,4.53538,4.549687,4.537467,4.512627,4.494713,4.482489,4.496744,4.441171,4.368353,4.342072,4.309029,4.29742,4.24365,4.238103,4.219453,4.161751,4.147344,4.080131,4.090916,4.056296,3.963742,3.943708,3.934648,3.939684,3.938323,3.964472,4.007963,4.007799,4.027135,4.054515,4.2143,4.534559,4.045889,4.115561,4.07229,4.218152,4.140107,4.229594,4.48556,4.239367,4.091735,4.073825,4.066489,4.530078,4.161414,3.994852,3.918429,3.975902,3.938617,3.935792,4.126998,4.062479,3.994568,3.964241,3.963228,3.873327,3.855735,3.849366,3.64332,3.82002,3.774552,3.815089,3.804933,3.703959,3.788591,3.955715,3.866729,3.911448,3.693907
3.179037,3.1834,3.187366,3.196178,3.207403,3.22839,3.244849,3.265512,3.281469,3.303321,3.322997,3.340294,3.353902,3.366801,3.37794,3.387369,3.397531,3.402725,3.410619,3.415313,3.418881,3.424557,3.429498,3.434498,3.444048,3.453234,3.46387,3.475662,3.489668,3.505202,3.525264,3.549707,3.573624,3.600587,3.632675,3.664932,3.690275,3.712386,3.744835,3.77495,3.800874,3.830318,3.859222,3.891248,3.921879,3.944496,3.966351,3.98309,4.000812,4.017109,4.024905,4.032324,4.03689,4.041391,4.037141,4.022762,4.010262,3.998518,3.980924,3.964025,3.951402,3.930588,3.908664,3.894312,3.874764,3.861148,3.845078,3.829486,3.816562,3.802218,3.791857,3.784748,3.779979,3.768186,3.757331,3.753563,3.749172,3.744538,3.738499,3.735928,3.732347,3.731013,3.729097,3.72691,3.726103,3.728281,3.733055,3.73122,3.732442,3.736487,3.743199,3.749276,3.756266,3.762302,3.767331,3.772836,3.780377,3.787233,3.792844,3.798305,3.805104,3.80959,3.813089,3.817584,3.822155,3.826373,3.831759,3.8369,3.840545,3.845191,3.850321,3.85567,3.86005,3.864837,3.871033,3.87492,3.878803,3.882099,3.886521,3.892288,3.897658,3.901182,3.904757,3.910155,3.916024,3.922961,3.926926,3.93321,3.937381,3.943336,3.950269,3.955448,3.960472,3.96458,3.967798,3.971025,3.972842,3.974285,3.975448,3.976571,3.976021,3.975985,3.97596,3.975277,3.974171,3.97384,3.970696,3.968581,3.966439,3.96413,3.96198,3.959767,3.960179,3.959778,3.960268,3.961465,3.961857,3.962892,3.962544,3.96075,3.957664,3.95001,3.939806,3.926231,3.908664,3.888209,3.864551,3.838778,3.811184,3.78316,3.756138,3.728555,3.702031,3.677791,3.653357,3.629571,3.607245,3.585526,3.565161,3.545621,3.527836,3.511586,3.495801,3.480881,3.467155,3.453439,3.440345,3.428293,3.416838,3.40639,3.396571,3.387738,3.379647,3.371882,3.364667,3.358089,3.351607,3.345369,3.339481,3.333576,3.327758,3.321773,3.31575,3.309817,3.303357,3.296649,3.289501,3.281273,3.272254,3.262892,3.253063,3.243312,3.233671,3.224329,3.215492,3.206367,3.197268,3.188286,3.178548,3.16817,3.157179,3.145272,3.132609,3.11883,3.104362,3.089893,3.074262,3.058567,3.043508,3.027993,3.01264,2.997649,2.982957,2.968798,2.954598,2.940798,2.927746,2.914341,2.90112,2.888471,2.875611,2.863078,2.850736,2.838961,2.827924,2.8172,2.807254,2.798746,2.791008,2.78477,2.780617,2.778525,2.778088,2.779448,2.783422,2.790808,2.803908,2.822711,2.84921,2.882436,2.925244,2.975978,3.030666,3.090818,3.150395,3.201146,3.244694,3.279732,3.308827,3.333527,3.355201,3.375095,3.392576,3.406121,3.418076,3.429476,3.442545,3.460554,3.483393,3.512298,3.544307,3.575868,3.607815,3.638267,3.665622,3.692118,3.719024,3.749729,3.78666,3.82862,3.877872,3.929743,3.976478,4.01766,4.050846,4.080991,4.115222,4.155716,4.206621,4.260983,4.306021,4.339073,4.352486,4.349803,4.330838,4.29998,4.251779,4.186407,4.105267,4.006536,3.895129,3.785006,3.678466,3.58069,3.49092,3.408469,3.336903,3.269885,3.207844,3.152666,3.101018,3.053662,3.010188,2.969916,2.934687,2.901895,2.871569,2.845173,2.820853,2.798987,2.779448,2.76185,2.746661,2.732735,2.719812,2.708511,2.698204,2.68926,2.681911,2.676341,2.672718,2.670909,2.670802,2.671972,2.673684,2.675062,2.67496,2.672483,2.667317,2.659426,2.64958,2.639428,2.629252,2.619869,2.611797,2.605016,2.600049,2.596451,2.594477,2.594301,2.596614,2.602065,2.612032,2.627539,2.649037,2.677773,2.715905,2.760535,2.814032,2.872066,2.935587,3.002531,3.065808,3.12915,3.190906,3.248063,3.302145,3.350273,3.392765,3.432186,3.46804,3.505303,3.54425,3.583728,3.624815,3.665582,3.708543,3.754621,3.801474,3.851918,3.904173,3.960027,4.020549,4.078741,4.133684,4.17082,4.178835,4.150153,4.106429,4.062952,4.034836,4.03114,4.044374,4.068907,4.094196,4.113454,4.122782,4.125252,4.125612,4.12627,4.128356,4.130717,4.129867,4.124405,4.112527,4.096495,4.076228,4.053792,4.027569,3.999867,3.970341,3.941736,3.917414,3.89806,3.882981,3.872161,3.862697,3.854517,3.845703,3.835217,3.822997,3.807979,3.792072,3.774745,3.757123,3.740296,3.723803,3.707998,3.691785,3.675038,3.658775,3.641785,3.624873,3.608852,3.59308,3.57938,3.566907,3.555856,3.546621,3.538893,3.532375,3.526208,3.520038,3.514347,3.50932,3.505578,3.503981,3.504895,3.508593,3.515169,3.525069,3.537796,3.554171,3.572355,3.593321,3.616407,3.639926,3.663977,3.686264,3.707306,3.726187,3.743088,3.76026,3.778916,3.803456,3.835167,3.87397,3.921924,3.976727,4.039931,4.110241,4.181685,4.257125,4.32964,4.397016,4.45405,4.493327,4.516619,4.524951,4.514909,4.493157,4.460441,4.422893,4.387021,4.359395,4.343651,4.340463,4.351763,4.377316,4.408287,4.43362,4.440294,4.412848,4.357176,4.288283,4.221053,4.1655,4.123639,4.095572,4.079124,4.067932,4.059287,4.052423,4.047068,4.045845,4.049952,4.05872,4.074015,4.094516,4.120537,4.151461,4.1855,4.227367,4.283487,4.363418,4.478955,4.630793,4.827028,5.051246,5.265267,5.446386,5.556039,5.577366,5.575164,5.578101,5.597948,5.614243,5.621176,5.630318,5.622831,5.606586,5.585718,5.567281,5.545041,5.535686,5.542209,5.544003,5.537451,5.511352,5.47415,5.436103,5.411213,5.367106,5.338764,5.301416,5.270445,5.249796,5.219631,5.185461,5.159415,5.132257,5.100663,5.077547,5.052165,5.025365,5.010889,4.985412,4.962339,4.94535,4.90774,4.871431,4.844283,4.810266,4.769658,4.746581,4.715492,4.684793,4.647599,4.636667,4.595377,4.579696,4.57694,4.588634,4.566097,4.548659,4.537304,4.500919,4.557641,4.484807,4.384366,4.362733,4.335081,4.327541,4.290181,4.305643,4.237669,4.174994,4.153899,4.104113,4.123877,4.064304,3.994386,3.974792,3.941213,3.940321,3.95783,3.991457,4.016908,4.028341,4.04899,4.120575,4.186569,4.49398,4.270217,4.256102,4.25255,4.337841,4.293838,4.492395,4.655829,4.651896,4.407701,4.45982,4.61673,5.68743,4.246839,4.200583,4.172262,4.319853,4.331842,4.302454,4.212869,4.281046,4.562828,4.246649,4.139746,4.147785,4.246898,4.222143,4.074172,4.111967,4.180803,4.204561,4.076268,4.07776,4.251473,4.122927,4.143468,4.157605,4.102746
3.14011,3.146897,3.152525,3.160649,3.174326,3.203934,3.22138,3.244223,3.269362,3.285091,3.301578,3.317236,3.330142,3.344019,3.355533,3.364522,3.374508,3.380442,3.387958,3.396348,3.405464,3.413881,3.419968,3.424399,3.431307,3.440498,3.451663,3.471543,3.486511,3.500162,3.519063,3.540367,3.561204,3.600834,3.638052,3.662982,3.690761,3.727759,3.755027,3.797316,3.83771,3.870331,3.898286,3.93214,3.962285,3.986447,4.016064,4.044574,4.072336,4.099155,4.121042,4.139572,4.146489,4.152472,4.151894,4.140351,4.134434,4.127918,4.116631,4.103821,4.099581,4.076358,4.046647,4.026318,4.006205,3.999366,3.981996,3.957676,3.948112,3.938279,3.932212,3.917469,3.909893,3.905051,3.88592,3.87569,3.875561,3.876539,3.8745,3.867237,3.863735,3.862383,3.857816,3.854944,3.856927,3.858837,3.864369,3.865928,3.866815,3.872809,3.878831,3.881605,3.890941,3.899221,3.907208,3.914107,3.920074,3.926605,3.930467,3.936078,3.94158,3.944626,3.947863,3.952267,3.956073,3.95905,3.963106,3.964692,3.963727,3.968875,3.971643,3.972842,3.977717,3.98259,3.989485,3.9934,3.996664,4.001286,4.006485,4.011281,4.014577,4.020051,4.023118,4.027975,4.033618,4.038709,4.04342,4.049944,4.057375,4.06418,4.063931,4.065213,4.069791,4.074191,4.077108,4.079002,4.081108,4.086512,4.085079,4.081055,4.081233,4.081027,4.077465,4.078694,4.077983,4.076618,4.073105,4.072039,4.070332,4.069015,4.064873,4.064061,4.060946,4.061852,4.059633,4.058688,4.058515,4.058393,4.057027,4.05702,4.054322,4.050692,4.04435,4.035323,4.0213,4.004918,3.983072,3.958525,3.931265,3.902682,3.875038,3.846522,3.818282,3.792488,3.766284,3.740757,3.717288,3.693989,3.67195,3.650804,3.63141,3.613542,3.595935,3.579009,3.563611,3.548051,3.533148,3.519329,3.505913,3.493464,3.48134,3.470273,3.460056,3.449849,3.440292,3.431533,3.422824,3.414445,3.40664,3.399041,3.39165,3.384423,3.377228,3.370474,3.363172,3.355674,3.347569,3.338328,3.328004,3.317329,3.306094,3.294865,3.283821,3.273418,3.263605,3.253628,3.243996,3.234643,3.224491,3.213731,3.202294,3.189806,3.176485,3.161947,3.146756,3.131597,3.115329,3.098966,3.083259,3.067061,3.050918,3.035102,3.019467,3.004346,2.989094,2.97424,2.960127,2.945512,2.931009,2.916983,2.902618,2.888494,2.874345,2.860677,2.847695,2.834705,2.822482,2.811592,2.801197,2.792001,2.783513,2.778134,2.773858,2.770883,2.770038,2.771348,2.776448,2.786105,2.801545,2.82193,2.849144,2.881871,2.917236,2.956265,2.995387,3.030322,3.0622,3.090079,3.115561,3.139411,3.161665,3.183362,3.203257,3.219653,3.234749,3.249072,3.264886,3.285907,3.312446,3.346514,3.385313,3.424931,3.465687,3.504386,3.538723,3.570873,3.602363,3.63703,3.678342,3.724761,3.778569,3.834381,3.88396,3.926315,3.957972,3.984367,4.011425,4.043956,4.0877,4.138289,4.188238,4.235951,4.273599,4.299969,4.314886,4.313732,4.29056,4.245152,4.175725,4.08391,3.973553,3.860151,3.748444,3.645,3.549583,3.461563,3.384852,3.312788,3.245734,3.185952,3.129672,3.077947,3.030002,2.98535,2.946063,2.90932,2.875102,2.845086,2.817194,2.791879,2.768895,2.747852,2.729383,2.712209,2.696098,2.681871,2.668671,2.656801,2.646406,2.637559,2.630536,2.624952,2.620584,2.617388,2.614713,2.61205,2.608612,2.60363,2.597188,2.589087,2.579712,2.570267,2.560777,2.551888,2.544068,2.537174,2.531837,2.527659,2.524797,2.523434,2.523991,2.526956,2.533446,2.544007,2.55917,2.579746,2.607424,2.640154,2.679831,2.723415,2.771916,2.824132,2.875365,2.928692,2.983854,3.037907,3.092194,3.14252,3.188315,3.230192,3.266245,3.30195,3.338593,3.377117,3.419837,3.464658,3.513463,3.565679,3.617585,3.671665,3.726577,3.784608,3.849186,3.915203,3.983122,4.037283,4.063015,4.04377,4.002789,3.955079,3.920309,3.910668,3.91996,3.944592,3.974818,4.004016,4.025325,4.040348,4.05092,4.057217,4.062073,4.066356,4.068307,4.066852,4.060133,4.049846,4.035529,4.018548,3.997895,3.975063,3.948714,3.922546,3.899499,3.880172,3.865578,3.854333,3.844881,3.83676,3.829216,3.820812,3.811623,3.800095,3.787279,3.772841,3.756967,3.74174,3.726017,3.710921,3.695325,3.679037,3.662653,3.645386,3.627713,3.61004,3.592598,3.576497,3.56111,3.546559,3.53376,3.522221,3.512097,3.502195,3.493074,3.484332,3.476787,3.471242,3.467485,3.466012,3.46722,3.471053,3.47745,3.486782,3.49851,3.511894,3.527336,3.544534,3.562721,3.581862,3.600144,3.617709,3.632788,3.645311,3.656595,3.667934,3.683146,3.70433,3.731187,3.765491,3.804568,3.849869,3.900256,3.950475,4.002695,4.053689,4.099127,4.137502,4.162022,4.177822,4.180448,4.172181,4.154293,4.131074,4.103533,4.077959,4.057786,4.04771,4.047216,4.057824,4.078014,4.103323,4.125205,4.133171,4.118721,4.082943,4.036609,3.988765,3.948468,3.916788,3.893771,3.879402,3.867884,3.857723,3.849036,3.841572,3.836327,3.83446,3.83601,3.841867,3.852274,3.865874,3.883511,3.904252,3.933556,3.974396,4.037061,4.130632,4.255343,4.419131,4.614248,4.814621,4.988973,5.097607,5.132979,5.150658,5.176873,5.247304,5.326684,5.382362,5.43507,5.440814,5.444827,5.449357,5.4776,5.509191,5.545903,5.538188,5.514767,5.492009,5.469048,5.451366,5.420347,5.383433,5.349613,5.33745,5.303393,5.274053,5.245279,5.22546,5.188159,5.170655,5.145964,5.113569,5.09679,5.080859,5.057512,5.038702,5.035671,5.015792,5.001749,4.972634,4.938398,4.901656,4.890113,4.833158,4.809396,4.781664,4.761611,4.713198,4.701731,4.675682,4.653823,4.651933,4.663856,4.641063,4.621101,4.58454,4.54128,4.573634,4.51055,4.424645,4.417711,4.360179,4.344816,4.321054,4.317268,4.293919,4.243775,4.205208,4.164063,4.16116,4.138396,4.043525,4.010702,4.016582,4.00635,4.00942,4.028607,4.02924,4.046237,4.073411,4.072184,4.477709,4.446369,4.197193,4.115236,4.035748,4.141889,4.138478,4.272161,4.369596,4.317969,4.39444,4.265296,4.539131,4.509796,4.148458,4.150478,4.050105,4.072881,4.169259,4.001644,4.153244,4.03765,4.06876,4.1445,4.251461,3.963503,3.891542,4.006357,3.874392,4.044722,3.884953,3.884481,3.895498,3.865644,3.884581,3.77685,3.988807,4.083549,3.909926
3.039614,3.043355,3.047866,3.057582,3.069781,3.083159,3.102682,3.126374,3.148618,3.164647,3.176607,3.190617,3.205943,3.221558,3.232941,3.238995,3.246966,3.256525,3.26604,3.27417,3.282752,3.285521,3.288836,3.295554,3.303314,3.312702,3.324145,3.3378,3.352519,3.370956,3.388102,3.404356,3.436452,3.466219,3.493521,3.526781,3.548891,3.57013,3.592531,3.610696,3.641506,3.677533,3.70166,3.723101,3.740591,3.757402,3.773041,3.786487,3.796321,3.805483,3.812193,3.815809,3.814333,3.802266,3.789255,3.781174,3.775173,3.76297,3.74024,3.715746,3.702098,3.685957,3.663539,3.650334,3.635726,3.621103,3.602715,3.590161,3.578128,3.565523,3.556265,3.551672,3.539333,3.531847,3.521937,3.517745,3.51533,3.509255,3.507895,3.499187,3.498351,3.495774,3.493799,3.494101,3.492134,3.490916,3.491404,3.494299,3.494493,3.495567,3.498255,3.50602,3.513312,3.515924,3.521883,3.527331,3.533042,3.538725,3.543997,3.549396,3.55486,3.55888,3.563098,3.567789,3.571689,3.57656,3.581,3.585533,3.59027,3.595105,3.599857,3.604631,3.608029,3.61132,3.617115,3.621598,3.624934,3.629077,3.634096,3.63753,3.641234,3.646368,3.649627,3.651796,3.657157,3.66234,3.667457,3.670692,3.675452,3.678766,3.684185,3.688453,3.691607,3.695195,3.697822,3.699933,3.700592,3.702298,3.702357,3.702571,3.702476,3.702199,3.702225,3.70275,3.702606,3.702373,3.701682,3.700431,3.700037,3.699812,3.699604,3.699389,3.699403,3.699809,3.701698,3.702484,3.703966,3.706045,3.706815,3.707043,3.70595,3.705123,3.697669,3.688378,3.674807,3.65753,3.636246,3.611926,3.584943,3.557101,3.530205,3.502327,3.475641,3.451256,3.426879,3.403563,3.381747,3.360584,3.340823,3.322134,3.305128,3.289793,3.274947,3.261022,3.248266,3.235734,3.223786,3.212908,3.202643,3.193369,3.184594,3.176787,3.169733,3.162898,3.156695,3.151165,3.145864,3.140822,3.136274,3.131785,3.127528,3.123342,3.119325,3.115381,3.111031,3.106406,3.101206,3.094888,3.087608,3.07972,3.071272,3.062771,3.054394,3.046441,3.039103,3.031753,3.024653,3.017637,3.010006,3.00161,2.992571,2.98248,2.971464,2.959272,2.946307,2.933219,2.919029,2.904703,2.890966,2.876776,2.862676,2.848877,2.835351,2.822296,2.809232,2.79657,2.784625,2.772376,2.760199,2.748467,2.73652,2.724778,2.713136,2.701965,2.691468,2.681141,2.671596,2.66333,2.655746,2.649437,2.644474,2.641984,2.640796,2.641069,2.643533,2.648717,2.658629,2.673197,2.694073,2.720419,2.754627,2.795368,2.8394,2.888011,2.936454,2.97888,3.016816,3.049219,3.077903,3.104046,3.128041,3.151119,3.172112,3.189219,3.204859,3.219919,3.236519,3.258374,3.285722,3.32026,3.358988,3.398078,3.438162,3.476149,3.510178,3.542377,3.574172,3.609422,3.651353,3.698374,3.752749,3.809385,3.86003,3.904209,3.937939,3.966282,3.996713,4.032864,4.079323,4.13239,4.182123,4.227578,4.259503,4.279411,4.284136,4.27568,4.246562,4.195222,4.121668,4.026118,3.912905,3.798601,3.686921,3.583544,3.488455,3.400627,3.324459,3.252929,3.186652,3.127519,3.07201,3.020928,2.97375,2.929983,2.891467,2.855504,2.822162,2.792956,2.765895,2.741445,2.719397,2.699295,2.681782,2.66556,2.650436,2.637164,2.624893,2.613985,2.604604,2.596854,2.590983,2.586643,2.583643,2.58183,2.580578,2.579274,2.576975,2.572841,2.566839,2.558895,2.549487,2.539958,2.53035,2.521396,2.513523,2.506751,2.501621,2.49772,2.495222,2.494301,2.495527,2.499422,2.507128,2.519395,2.536685,2.559961,2.591128,2.62789,2.672231,2.720761,2.774451,2.831849,2.887434,2.944624,3.002703,3.058704,3.113993,3.164702,3.210453,3.252368,3.289073,3.32573,3.363801,3.403245,3.446283,3.490809,3.538956,3.590567,3.642295,3.696648,3.752093,3.811041,3.875778,3.94148,4.007723,4.057594,4.077931,4.056216,4.013691,3.965109,3.931102,3.922679,3.932342,3.95677,3.985839,4.012243,4.02981,4.040578,4.047693,4.051643,4.055367,4.058596,4.05887,4.055811,4.047359,4.034702,4.018282,3.999551,3.977176,3.951015,3.923355,3.895438,3.871305,3.851624,3.836486,3.824943,3.815622,3.807522,3.799433,3.790527,3.780409,3.767327,3.753751,3.738432,3.721933,3.706009,3.690008,3.674569,3.658898,3.6425,3.626266,3.609153,3.591405,3.574363,3.557223,3.541986,3.527346,3.514143,3.502336,3.4921,3.483317,3.474724,3.466897,3.459172,3.452569,3.447637,3.444956,3.44469,3.447057,3.452137,3.460409,3.470926,3.484514,3.499852,3.51767,3.537095,3.557347,3.578661,3.598606,3.617832,3.634491,3.648578,3.661898,3.675585,3.69447,3.718736,3.749908,3.788908,3.833844,3.88533,3.94297,4.000127,4.061069,4.119865,4.173674,4.219263,4.249525,4.267805,4.271932,4.264886,4.243814,4.218387,4.187778,4.158443,4.136228,4.12449,4.123426,4.135391,4.157085,4.185582,4.209513,4.217742,4.199083,4.156056,4.102321,4.047163,4.001097,3.967215,3.941935,3.926455,3.91547,3.905744,3.897718,3.890698,3.886641,3.886507,3.890517,3.899865,3.913379,3.931313,3.954415,3.977874,4.011601,4.059001,4.128742,4.231249,4.367044,4.542664,4.752407,4.962056,5.140388,5.253256,5.29837,5.311416,5.327847,5.367407,5.417013,5.4551,5.468813,5.465195,5.4609,5.465993,5.463669,5.497287,5.515872,5.509748,5.495015,5.458304,5.431252,5.397436,5.36396,5.326996,5.286944,5.258623,5.220039,5.198875,5.165977,5.134729,5.098329,5.06638,5.038623,5.017012,4.981664,4.974728,4.938334,4.939147,4.914284,4.916736,4.894657,4.87588,4.833025,4.797965,4.76582,4.738033,4.71143,4.678033,4.637127,4.626557,4.595064,4.585686,4.56118,4.551431,4.56687,4.547978,4.534281,4.516935,4.490433,4.509536,4.451968,4.386683,4.361903,4.338202,4.304616,4.2563,4.24014,4.215858,4.179554,4.15123,4.096189,4.103234,4.059369,4.006382,3.954893,3.950711,3.943513,3.969034,3.989905,4.009815,3.995158,4.026075,4.066456,4.25563,4.324851,4.095867,4.10708,4.137586,4.134148,4.107288,4.386434,4.41234,4.261037,4.110565,4.262631,4.439336,4.684776,4.017144,4.147554,4.02161,4.147763,4.248631,4.010731,3.933069,4.023915,3.969346,3.868985,3.854682,3.834805,3.878801,3.895829,3.938021,3.822474,3.834171,3.965514,3.877074,3.848136,3.825127,3.835499,3.871508,3.734857,3.850324
3.02234,3.022574,3.024637,3.032794,3.044881,3.061361,3.077896,3.095353,3.115399,3.134452,3.152613,3.168655,3.180886,3.192858,3.204078,3.212429,3.22058,3.224488,3.22952,3.233888,3.236792,3.240568,3.244395,3.249485,3.256011,3.262846,3.271024,3.281344,3.292327,3.305866,3.318711,3.334922,3.359153,3.381411,3.404898,3.420977,3.433574,3.449374,3.472619,3.494712,3.510793,3.523666,3.536659,3.546688,3.552844,3.560401,3.552752,3.548242,3.553411,3.5558,3.547911,3.538329,3.52825,3.519367,3.507505,3.492507,3.475323,3.459634,3.444624,3.429514,3.416091,3.395367,3.379805,3.363288,3.350857,3.338444,3.325186,3.311908,3.301824,3.291991,3.283236,3.276776,3.269966,3.26436,3.256945,3.253658,3.248749,3.245677,3.241393,3.237539,3.234321,3.230777,3.228631,3.225669,3.224698,3.22471,3.223713,3.224887,3.22495,3.226784,3.230523,3.233978,3.237726,3.242051,3.246836,3.25023,3.255191,3.260363,3.264982,3.269835,3.274885,3.279139,3.283428,3.288191,3.292951,3.297747,3.302203,3.306553,3.311069,3.31567,3.320433,3.325282,3.330028,3.332904,3.337099,3.340208,3.34397,3.346183,3.350439,3.354734,3.357668,3.360825,3.364248,3.367604,3.37122,3.376214,3.381215,3.385073,3.391101,3.397234,3.402983,3.40837,3.413254,3.417609,3.420571,3.424335,3.42621,3.427826,3.428877,3.429416,3.431019,3.431747,3.433049,3.434522,3.435531,3.436484,3.436932,3.437885,3.438536,3.43883,3.439447,3.441046,3.443189,3.446345,3.450927,3.455149,3.459482,3.46361,3.46644,3.467778,3.466082,3.461528,3.453579,3.441912,3.426087,3.407123,3.385003,3.360652,3.334414,3.307685,3.282153,3.256323,3.231642,3.209349,3.187207,3.166028,3.14636,3.127354,3.109681,3.093189,3.078616,3.065699,3.053623,3.042554,3.032632,3.022973,3.013992,3.006003,2.998746,2.992482,2.987064,2.982617,2.978905,2.975704,2.973008,2.970881,2.968974,2.967416,2.965991,2.964638,2.96325,2.961787,2.960227,2.958529,2.95648,2.954079,2.951102,2.947168,2.942393,2.937037,2.931157,2.92518,2.919271,2.913618,2.90837,2.903045,2.897691,2.892289,2.886199,2.879426,2.872023,2.86361,2.85429,2.843815,2.832492,2.820961,2.808347,2.795557,2.78328,2.770645,2.758174,2.746049,2.734259,2.723005,2.711829,2.701108,2.691043,2.68081,2.670765,2.6612,2.651543,2.642187,2.633025,2.624427,2.616538,2.609011,2.602367,2.597028,2.592639,2.589866,2.589316,2.590338,2.593197,2.597965,2.605619,2.616726,2.633238,2.655454,2.685585,2.722496,2.769475,2.825165,2.885556,2.952449,3.019222,3.075974,3.12477,3.164249,3.197175,3.225267,3.24999,3.272914,3.293265,3.309468,3.323963,3.337659,3.353013,3.373503,3.399237,3.431384,3.466451,3.500915,3.535837,3.569134,3.599221,3.628308,3.657865,3.691169,3.731021,3.776071,3.828729,3.884494,3.934824,3.979777,4.015603,4.047803,4.084043,4.126117,4.179784,4.237371,4.28481,4.321234,4.336631,4.333256,4.315271,4.283454,4.234483,4.167215,4.082897,3.980076,3.864149,3.749895,3.639721,3.538764,3.446227,3.36133,3.287822,3.219244,3.155781,3.099378,3.046606,2.998347,2.954035,2.913102,2.877295,2.844061,2.813394,2.786683,2.76216,2.740198,2.720634,2.703077,2.687998,2.674237,2.661528,2.650467,2.640449,2.63177,2.624733,2.619489,2.61621,2.61475,2.615062,2.616657,2.618843,2.620682,2.620997,2.618888,2.61392,2.606164,2.596385,2.586249,2.576087,2.566738,2.55871,2.552021,2.547171,2.543776,2.541974,2.541961,2.544463,2.550229,2.560561,2.576531,2.598666,2.628188,2.667406,2.713348,2.768513,2.828453,2.89414,2.963491,3.029059,3.094742,3.158792,3.218188,3.274357,3.324184,3.36836,3.409331,3.446454,3.485125,3.525679,3.566591,3.609343,3.651836,3.696706,3.744715,3.793781,3.846823,3.901612,3.960257,4.023179,4.084154,4.141644,4.180592,4.188559,4.157082,4.109946,4.062714,4.033156,4.027252,4.040238,4.0647,4.089674,4.108636,4.117126,4.119511,4.118365,4.117596,4.119076,4.119931,4.117796,4.110947,4.097713,4.078818,4.057615,4.033888,4.005691,3.976686,3.945669,3.915058,3.889741,3.868938,3.853817,3.841594,3.831937,3.823312,3.814257,3.802906,3.78988,3.774426,3.757875,3.740275,3.721656,3.70419,3.687392,3.671171,3.654879,3.638248,3.62191,3.60503,3.588134,3.572007,3.556346,3.543296,3.531015,3.520558,3.511763,3.505133,3.499378,3.493941,3.488833,3.484088,3.479773,3.476934,3.476542,3.477993,3.482915,3.49093,3.50182,3.515955,3.533575,3.553419,3.575974,3.60061,3.625842,3.651534,3.675501,3.698159,3.718124,3.735955,3.754256,3.773987,3.799647,3.833024,3.873967,3.924459,3.981598,4.04791,4.122034,4.197069,4.277594,4.355679,4.427406,4.488364,4.529728,4.559126,4.56544,4.557198,4.531475,4.498793,4.458252,4.422837,4.393773,4.377411,4.37434,4.386833,4.413421,4.447261,4.474556,4.481647,4.45327,4.392937,4.3206,4.24979,4.190647,4.147456,4.119096,4.101143,4.090946,4.081096,4.07441,4.069153,4.067852,4.071546,4.081574,4.097282,4.119004,4.146278,4.178695,4.214541,4.258489,4.317307,4.399162,4.51758,4.676394,4.872532,5.098409,5.312683,5.470973,5.549768,5.561501,5.556681,5.560021,5.569335,5.580315,5.596238,5.601715,5.600459,5.603633,5.582167,5.604631,5.595347,5.573329,5.548073,5.51609,5.484747,5.445878,5.405177,5.366538,5.329288,5.293176,5.262942,5.224315,5.19044,5.160643,5.120763,5.101085,5.062887,5.042287,5.007752,4.98831,4.955613,4.938412,4.916492,4.90356,4.882356,4.872814,4.836916,4.828267,4.794958,4.753436,4.742179,4.710398,4.673202,4.641013,4.622597,4.595816,4.568674,4.555523,4.549138,4.552117,4.560509,4.528066,4.525383,4.521756,4.551676,4.476611,4.418653,4.374569,4.339743,4.327258,4.279433,4.275997,4.231472,4.20549,4.16888,4.14382,4.137708,4.08694,4.014109,3.99915,3.976448,3.977239,3.995722,3.992377,4.036163,4.055193,4.056172,4.073747,4.289721,4.376041,4.122528,4.133864,4.092816,4.203095,4.281259,4.431344,4.533377,4.26852,4.561697,4.455986,4.338658,4.407085,4.119575,4.132451,4.088418,4.076907,4.248241,4.048014,4.067626,4.182158,4.127007,4.1121,4.054038,3.888279,3.994283,3.879982,3.810085,3.946202,3.88338,4.004929,3.84198,3.788743,3.929761,3.882774,3.918844,3.741193,3.871153
3.177694,3.182153,3.185278,3.194978,3.205447,3.225666,3.242424,3.263785,3.279599,3.300274,3.319345,3.337996,3.351562,3.36469,3.376382,3.386366,3.394452,3.397711,3.40365,3.413153,3.415989,3.422126,3.427421,3.433778,3.441041,3.44909,3.46016,3.473073,3.48561,3.500586,3.519815,3.54425,3.569407,3.589972,3.626171,3.655764,3.682019,3.704915,3.72827,3.76139,3.790368,3.813095,3.841381,3.868599,3.894495,3.918539,3.940438,3.958284,3.974077,3.986619,3.995098,3.99553,3.990425,3.987623,3.979475,3.972873,3.955984,3.942184,3.931334,3.913431,3.890702,3.876164,3.85463,3.839291,3.827168,3.80569,3.791729,3.77686,3.764684,3.75651,3.74083,3.728979,3.725338,3.715904,3.706193,3.701968,3.698117,3.692828,3.688421,3.685069,3.679571,3.6759,3.675746,3.677108,3.675006,3.675992,3.680504,3.68036,3.680959,3.685796,3.689805,3.697186,3.703164,3.711175,3.715939,3.72175,3.728543,3.735651,3.742648,3.74863,3.754924,3.759326,3.763975,3.769088,3.773382,3.778811,3.78453,3.787956,3.792223,3.796775,3.802142,3.807371,3.811938,3.816182,3.822387,3.824387,3.828117,3.833134,3.838098,3.84251,3.847234,3.852103,3.855823,3.860394,3.865489,3.870307,3.877286,3.882079,3.887372,3.89382,3.899294,3.905837,3.910374,3.914856,3.918586,3.921422,3.923216,3.924678,3.926187,3.926507,3.926422,3.927171,3.926304,3.925167,3.925838,3.924989,3.92315,3.921331,3.918386,3.917097,3.915217,3.914441,3.913594,3.913998,3.914309,3.916473,3.917717,3.919444,3.920049,3.918654,3.914402,3.907762,3.897682,3.884371,3.867183,3.84667,3.823192,3.797613,3.770109,3.742233,3.715584,3.688373,3.662076,3.638088,3.613926,3.590528,3.568508,3.54714,3.527109,3.508041,3.49069,3.475023,3.459784,3.44533,3.432079,3.418915,3.406396,3.394932,3.384056,3.374141,3.364954,3.35673,3.349257,3.342081,3.335434,3.329448,3.323543,3.317949,3.312634,3.307292,3.302014,3.296605,3.291216,3.285852,3.279903,3.273641,3.267001,3.259299,3.250775,3.241885,3.232546,3.223247,3.214006,3.205116,3.196706,3.188076,3.179447,3.170935,3.161649,3.151677,3.141149,3.12968,3.117437,3.104033,3.089963,3.075857,3.060635,3.045251,3.030563,3.015378,3.000377,2.985719,2.971386,2.957571,2.943706,2.930265,2.917556,2.904523,2.891617,2.879294,2.866781,2.854596,2.842598,2.831145,2.820509,2.810056,2.80048,2.792303,2.784922,2.779077,2.775459,2.773692,2.773609,2.775321,2.779661,2.787454,2.800933,2.820115,2.847008,2.880669,2.923962,2.975306,3.030736,3.0917,3.152104,3.203652,3.247932,3.283597,3.313246,3.338468,3.360605,3.380984,3.398933,3.412896,3.425204,3.436887,3.450261,3.46856,3.491824,3.521197,3.553704,3.585826,3.618354,3.649222,3.677063,3.703964,3.7313,3.762336,3.799726,3.842244,3.891957,3.9443,3.991639,4.03323,4.066377,4.096275,4.130535,4.170988,4.222093,4.276705,4.322057,4.355875,4.37029,4.367121,4.348181,4.317441,4.269584,4.203889,4.122565,4.02371,3.912188,3.801729,3.694748,3.596553,3.506436,3.423672,3.351865,3.28456,3.222287,3.166793,3.11486,3.067335,3.023589,2.98311,2.947662,2.914692,2.884174,2.857661,2.833192,2.811224,2.791548,2.773848,2.75857,2.744577,2.73158,2.72025,2.709906,2.700921,2.693544,2.687948,2.684305,2.682499,2.682431,2.683626,2.685412,2.686871,2.686854,2.684472,2.679382,2.671545,2.661722,2.651571,2.641385,2.632004,2.623896,2.617103,2.612136,2.608547,2.60658,2.606428,2.608758,2.614237,2.624262,2.639842,2.661456,2.690321,2.728663,2.773575,2.827344,2.88572,2.949677,3.017112,3.080832,3.144696,3.206935,3.264585,3.319256,3.367765,3.410839,3.450692,3.486905,3.524439,3.563704,3.603482,3.64493,3.686113,3.729469,3.775887,3.823075,3.873872,3.926583,3.9829,4.043759,4.102836,4.158413,4.196276,4.204456,4.175513,4.130869,4.086664,4.057956,4.053919,4.0673,4.091649,4.11727,4.136308,4.145925,4.148982,4.148964,4.15,4.151744,4.153611,4.152977,4.14724,4.135921,4.119733,4.10007,4.077374,4.051292,4.023517,3.993937,3.965088,3.940633,3.920981,3.906335,3.895064,3.88589,3.877382,3.86861,3.858207,3.845985,3.831064,3.815157,3.797786,3.780076,3.76313,3.746537,3.730785,3.714575,3.697857,3.681549,3.664532,3.647535,3.631267,3.615627,3.60184,3.589258,3.578205,3.568971,3.561213,3.554713,3.548485,3.542281,3.536469,3.531519,3.52752,3.52605,3.526775,3.530496,3.537313,3.547053,3.559829,3.576146,3.594679,3.615739,3.638923,3.66264,3.686812,3.709381,3.730602,3.749936,3.767057,3.784404,3.803329,3.828092,3.860087,3.899274,3.947534,4.002886,4.06621,4.136793,4.208556,4.283511,4.357014,4.424169,4.481853,4.519901,4.544569,4.551182,4.542962,4.518864,4.487288,4.448699,4.413378,4.385344,4.369423,4.366656,4.377717,4.40266,4.433925,4.459745,4.466534,4.438909,4.382616,4.31395,4.247024,4.19033,4.149116,4.120611,4.103509,4.092751,4.084376,4.077189,4.07188,4.0708,4.074816,4.083578,4.098794,4.119977,4.145667,4.176932,4.210886,4.252369,4.308613,4.388051,4.504266,4.655482,4.85167,5.07324,5.287047,5.463077,5.566626,5.581421,5.577217,5.581162,5.600948,5.616785,5.623267,5.629717,5.626796,5.610112,5.591429,5.568398,5.54478,5.54409,5.559884,5.538525,5.528376,5.501532,5.478319,5.441439,5.407675,5.36562,5.333658,5.306786,5.27247,5.241601,5.210049,5.182842,5.147153,5.131126,5.103523,5.073352,5.05281,5.025846,4.997581,4.978901,4.952266,4.930136,4.908335,4.86465,4.838351,4.806417,4.771116,4.739763,4.714097,4.678587,4.645325,4.614836,4.590299,4.575535,4.579175,4.606906,4.576224,4.540103,4.534226,4.526212,4.554056,4.480248,4.398833,4.367068,4.318573,4.319844,4.25747,4.277933,4.265573,4.188986,4.151572,4.1257,4.125663,4.081363,4.011811,3.983153,3.950624,3.955781,3.963013,3.996657,4.028112,4.023613,4.106753,4.125894,4.445814,4.683416,4.215748,4.267427,4.314519,4.370437,4.360715,4.51729,4.947297,4.333973,4.354052,4.516559,4.348877,4.835206,4.150837,4.218207,4.28799,4.317217,4.251088,4.252923,4.376169,4.183625,4.203566,4.178983,4.150528,4.219643,4.1401,4.159897,4.098704,4.107307,4.303737,4.092826,4.274494,4.178627,4.191606,4.110739,4.228756,3.980596,4.211646
3.175682,3.180443,3.183804,3.193681,3.204507,3.22713,3.24371,3.265481,3.282263,3.3027,3.322073,3.341226,3.354312,3.366533,3.378458,3.38723,3.395655,3.402363,3.40783,3.414482,3.419729,3.425817,3.431595,3.438237,3.446282,3.455502,3.467892,3.480711,3.494101,3.511238,3.535235,3.559645,3.581124,3.616231,3.646507,3.678873,3.701747,3.73027,3.769032,3.793977,3.825913,3.858247,3.896985,3.925718,3.952125,3.978176,4.006899,4.030085,4.055017,4.073288,4.087576,4.098243,4.103112,4.106962,4.103989,4.101429,4.093947,4.09066,4.068754,4.046278,4.03375,4.012126,3.998296,3.983291,3.968142,3.944378,3.932211,3.914533,3.902927,3.891097,3.879001,3.8686,3.863039,3.85533,3.843665,3.838428,3.833525,3.831614,3.832678,3.823748,3.818543,3.818383,3.815238,3.812549,3.814322,3.816156,3.820861,3.820317,3.82317,3.826919,3.829864,3.838167,3.845713,3.852806,3.858994,3.866028,3.872766,3.878889,3.884129,3.890276,3.89655,3.901156,3.904587,3.909657,3.91372,3.919082,3.924505,3.928853,3.932201,3.936175,3.940269,3.94529,3.948511,3.95298,3.960143,3.96174,3.965166,3.970312,3.976076,3.980742,3.986093,3.987115,3.992603,3.997552,4.000945,4.007309,4.012869,4.019756,4.025154,4.028309,4.034657,4.039903,4.044032,4.046943,4.051101,4.053937,4.054838,4.056546,4.058667,4.058065,4.057937,4.057714,4.057276,4.057838,4.055677,4.056255,4.054686,4.053249,4.051531,4.050732,4.048382,4.048319,4.046978,4.047819,4.047179,4.048151,4.048442,4.049095,4.049317,4.048574,4.046948,4.042696,4.036482,4.027014,4.011776,3.993526,3.970785,3.945115,3.916502,3.887014,3.85832,3.828654,3.799874,3.773346,3.746925,3.721148,3.697246,3.673813,3.651722,3.630624,3.61131,3.593685,3.576605,3.560199,3.545175,3.530251,3.516042,3.502932,3.490437,3.478756,3.467741,3.457663,3.448411,3.439424,3.430956,3.423352,3.415798,3.40861,3.401963,3.395322,3.389015,3.382729,3.376583,3.370591,3.364053,3.357209,3.349886,3.341177,3.331544,3.321395,3.31076,3.300044,3.289468,3.279388,3.269994,3.260484,3.251205,3.242163,3.232372,3.221767,3.21054,3.19819,3.184905,3.17046,3.155253,3.140042,3.123642,3.107131,3.091287,3.074923,3.058731,3.042791,3.027117,3.012003,2.996782,2.981995,2.967936,2.953449,2.939056,2.925199,2.911052,2.897103,2.883236,2.869869,2.857239,2.844754,2.833083,2.822901,2.813274,2.804999,2.798321,2.794156,2.791307,2.790007,2.791089,2.794774,2.803276,2.816896,2.837159,2.863077,2.897098,2.937703,2.981566,3.029975,3.078295,3.120723,3.158783,3.191214,3.219887,3.245992,3.269918,3.292943,3.313937,3.331038,3.34654,3.361283,3.377478,3.398824,3.425913,3.460678,3.500039,3.539989,3.580984,3.620173,3.655144,3.688028,3.720334,3.756075,3.798457,3.846038,3.901342,3.959277,4.011061,4.055747,4.089686,4.117991,4.148158,4.184022,4.231408,4.285084,4.336095,4.38101,4.413396,4.433172,4.438318,4.429021,4.398738,4.345819,4.270108,4.172868,4.058402,3.941321,3.825993,3.71925,3.620902,3.530171,3.451199,3.376851,3.307447,3.24548,3.187361,3.133859,3.0844,3.038417,2.998007,2.960211,2.925104,2.894312,2.865808,2.840051,2.816721,2.795407,2.776817,2.759572,2.743466,2.72932,2.71625,2.704588,2.694546,2.686191,2.679809,2.675032,2.671662,2.669579,2.668117,2.666566,2.664022,2.659615,2.653248,2.64483,2.634855,2.624711,2.614554,2.605078,2.59672,2.589546,2.584082,2.579919,2.57724,2.576236,2.577448,2.581413,2.589436,2.60224,2.6203,2.64462,2.677148,2.715427,2.761659,2.81224,2.868124,2.927954,2.985978,3.045666,3.106265,3.164806,3.222564,3.275533,3.323399,3.36719,3.405449,3.443753,3.483225,3.524225,3.56895,3.615002,3.664883,3.718263,3.771742,3.827841,3.885,3.94536,4.011757,4.078657,4.145652,4.198112,4.219402,4.197679,4.153792,4.105696,4.071912,4.063888,4.075023,4.100697,4.130787,4.158911,4.178646,4.191444,4.198749,4.204155,4.208929,4.212682,4.214546,4.211114,4.203857,4.191319,4.175245,4.155889,4.132705,4.106995,4.078616,4.050539,4.026199,4.006315,3.99069,3.979301,3.969614,3.961693,3.953329,3.944404,3.933903,3.921329,3.906978,3.891212,3.874266,3.857726,3.841288,3.825218,3.808702,3.791465,3.774217,3.756098,3.737674,3.719372,3.701244,3.684902,3.669558,3.655169,3.642554,3.631267,3.621334,3.611991,3.602782,3.594395,3.587,3.58131,3.578018,3.577084,3.579119,3.583957,3.591764,3.602196,3.615585,3.631093,3.648857,3.668544,3.689227,3.710862,3.73135,3.750837,3.768071,3.782482,3.796165,3.810483,3.829327,3.854679,3.886324,3.926415,3.97221,4.024989,4.083679,4.142784,4.205204,4.264656,4.318318,4.363775,4.394239,4.413538,4.416797,4.408278,4.387734,4.360914,4.328818,4.299126,4.27634,4.264287,4.263451,4.27491,4.296581,4.324786,4.348448,4.356923,4.337499,4.294725,4.23993,4.183999,4.136699,4.100932,4.076334,4.06007,4.048248,4.038955,4.029969,4.022732,4.018444,4.01827,4.02245,4.031326,4.045298,4.063621,4.086109,4.111989,4.146091,4.194545,4.264457,4.367273,4.504071,4.680973,4.890196,5.092244,5.271338,5.384718,5.410648,5.413672,5.436853,5.476216,5.534034,5.553177,5.567925,5.562197,5.55309,5.55156,5.543578,5.527258,5.511614,5.516222,5.522367,5.51564,5.493922,5.465669,5.431007,5.405227,5.37358,5.339945,5.306605,5.285027,5.253319,5.212945,5.19214,5.153475,5.130204,5.106174,5.076231,5.051935,5.03183,5.009967,4.986257,4.966198,4.941783,4.922765,4.887507,4.84533,4.818864,4.786219,4.747957,4.718801,4.679414,4.664927,4.641051,4.610456,4.595218,4.577209,4.608016,4.594102,4.560328,4.547169,4.503934,4.567304,4.493093,4.392214,4.380228,4.356611,4.320223,4.286018,4.286695,4.232761,4.200679,4.160706,4.10973,4.114434,4.083809,3.980755,3.972791,3.946073,3.950897,3.942785,4.022202,4.024901,4.018758,4.064064,4.122041,4.412111,4.655877,4.20737,4.297617,4.290769,4.308604,4.419362,4.494386,4.741273,4.658407,4.585519,4.499042,4.391503,5.219215,4.186387,4.278186,4.295585,4.32749,4.365464,4.705278,4.475503,4.404121,4.316314,4.197851,4.185879,4.525326,4.066812,4.308337,4.026162,4.24492,4.253801,4.003962,4.145155,4.114866,4.225675,4.115465,4.304415,3.998672,4.188254
3.097282,3.100328,3.102842,3.112365,3.124532,3.143317,3.159236,3.172841,3.200524,3.225171,3.236646,3.2545,3.270862,3.289083,3.29526,3.302407,3.307015,3.315452,3.325584,3.334778,3.337149,3.328475,3.332613,3.340495,3.350012,3.358889,3.36936,3.378901,3.389746,3.407685,3.43937,3.457352,3.480283,3.51418,3.534141,3.558515,3.576653,3.599199,3.626897,3.655888,3.681834,3.703782,3.721236,3.738175,3.756012,3.772299,3.786823,3.797544,3.806637,3.812433,3.815481,3.821163,3.821237,3.805281,3.788444,3.782443,3.772851,3.761839,3.740187,3.71264,3.700846,3.683118,3.662441,3.647462,3.635059,3.618704,3.600817,3.59075,3.577756,3.565578,3.556682,3.552298,3.541353,3.532622,3.523149,3.518627,3.515863,3.510075,3.508604,3.498973,3.498641,3.49556,3.493987,3.4939,3.492685,3.490896,3.491497,3.49403,3.494386,3.496014,3.498387,3.506285,3.514108,3.51656,3.522546,3.528664,3.533905,3.539527,3.544716,3.549627,3.555135,3.559542,3.563866,3.56833,3.572276,3.576495,3.581445,3.585668,3.590437,3.594985,3.599595,3.60335,3.60703,3.611228,3.61681,3.62054,3.624078,3.628376,3.632613,3.635498,3.640209,3.645081,3.647104,3.650589,3.656036,3.661822,3.666784,3.670586,3.675896,3.679629,3.686451,3.69142,3.695807,3.699121,3.702399,3.705357,3.706113,3.707057,3.709084,3.708499,3.708157,3.708501,3.708092,3.708348,3.707284,3.707077,3.706123,3.703341,3.701721,3.700912,3.699047,3.698099,3.698415,3.698677,3.700752,3.701682,3.703459,3.704969,3.705199,3.70441,3.70073,3.694977,3.685859,3.673063,3.656841,3.63747,3.615312,3.590699,3.564807,3.538453,3.513349,3.487601,3.462917,3.44036,3.417893,3.396257,3.375982,3.356405,3.338046,3.320622,3.304789,3.290476,3.276682,3.263716,3.251891,3.240083,3.228967,3.218784,3.209236,3.200667,3.192804,3.185714,3.179377,3.173383,3.167884,3.162954,3.158216,3.15375,3.149578,3.145454,3.141227,3.136987,3.132695,3.128376,3.123634,3.11866,3.113233,3.106833,3.09968,3.092115,3.084099,3.076107,3.068169,3.060525,3.053314,3.045897,3.038526,3.03121,3.02324,3.014624,3.005423,2.99537,2.98457,2.972715,2.960169,2.947535,2.933871,2.92007,2.906842,2.893233,2.879822,2.866707,2.85391,2.841617,2.829314,2.817403,2.806187,2.794686,2.78336,2.772553,2.761569,2.75088,2.740367,2.730371,2.721025,2.711967,2.703704,2.69677,2.690601,2.685835,2.683322,2.682396,2.683057,2.685431,2.690324,2.69862,2.71213,2.73106,2.757426,2.790172,2.832114,2.881903,2.935557,2.994682,3.053153,3.102785,3.145415,3.179731,3.208299,3.232615,3.253961,3.273704,3.291101,3.304736,3.316746,3.328297,3.341303,3.359193,3.381887,3.410333,3.441606,3.472279,3.503176,3.532581,3.559172,3.58495,3.611137,3.641107,3.677133,3.718162,3.766079,3.816312,3.861561,3.901548,3.933672,3.962922,3.996355,4.036181,4.085608,4.13823,4.181204,4.214034,4.22703,4.224268,4.206141,4.176287,4.130627,4.068523,3.990363,3.894742,3.787655,3.682188,3.580092,3.486337,3.400218,3.321288,3.253052,3.189357,3.130405,3.077961,3.028843,2.983858,2.942546,2.904369,2.870916,2.839832,2.811158,2.786132,2.76311,2.742469,2.72404,2.70747,2.693181,2.680112,2.667999,2.657434,2.647797,2.639469,2.63265,2.627508,2.624215,2.622641,2.622701,2.623918,2.625676,2.627094,2.627116,2.62487,2.620044,2.612632,2.603368,2.593793,2.584173,2.575328,2.567672,2.561257,2.556557,2.55315,2.551274,2.551095,2.553289,2.558491,2.567966,2.582695,2.603192,2.630565,2.666975,2.709599,2.760728,2.816217,2.876938,2.940885,3.001252,3.061753,3.120697,3.175325,3.226924,3.272831,3.313217,3.350746,3.384973,3.420587,3.457896,3.495681,3.535012,3.574106,3.615434,3.65983,3.704848,3.753526,3.804137,3.858131,3.916766,3.973333,4.025834,4.060774,4.067896,4.040707,3.998756,3.956132,3.928585,3.924906,3.937655,3.96086,3.98515,4.003487,4.011019,4.012375,4.011965,4.012737,4.013531,4.015043,4.013817,4.007946,3.997832,3.981123,3.961542,3.93941,3.913729,3.887119,3.858373,3.830144,3.806489,3.788117,3.77352,3.762578,3.753428,3.745227,3.736781,3.726646,3.714873,3.700375,3.685054,3.668464,3.651293,3.635212,3.619397,3.604488,3.589179,3.573292,3.557841,3.542017,3.52613,3.51099,3.496414,3.483632,3.47203,3.461785,3.453476,3.446351,3.440585,3.435036,3.429446,3.424406,3.419704,3.416305,3.415384,3.416198,3.420043,3.427013,3.436542,3.449401,3.465201,3.482816,3.503248,3.525728,3.54864,3.57186,3.593575,3.613961,3.632253,3.648949,3.665215,3.683698,3.707446,3.737985,3.77555,3.822256,3.875278,3.936374,4.003912,4.07238,4.145342,4.216122,4.281123,4.337413,4.373616,4.397779,4.404627,4.396054,4.373644,4.343047,4.30686,4.272715,4.245192,4.230969,4.228434,4.239039,4.263735,4.294188,4.31943,4.325289,4.299654,4.24538,4.178586,4.112952,4.058636,4.018665,3.991331,3.976482,3.965311,3.957773,3.950509,3.945422,3.944115,3.948271,3.958647,3.970962,3.990834,4.016263,4.045946,4.079203,4.120088,4.17626,4.254333,4.368319,4.518504,4.711399,4.936642,5.156592,5.356513,5.448997,5.482597,5.492714,5.501152,5.517959,5.541443,5.560846,5.569463,5.567768,5.58157,5.552125,5.578537,5.584245,5.57092,5.552555,5.531127,5.49123,5.462886,5.429407,5.38714,5.356911,5.322255,5.285148,5.249646,5.223035,5.190167,5.162832,5.131074,5.112108,5.084545,5.048655,5.031672,5.006258,4.988163,4.981462,4.985381,4.960456,4.950185,4.911989,4.88949,4.85309,4.801343,4.80161,4.747758,4.714832,4.701272,4.680941,4.650373,4.637205,4.61728,4.597909,4.604863,4.610888,4.57729,4.560458,4.527016,4.578061,4.48975,4.445615,4.401485,4.380996,4.344934,4.317861,4.29402,4.266958,4.230461,4.186432,4.161591,4.172678,4.108883,4.051086,4.015788,4.014864,4.006582,4.00177,4.046027,4.058091,4.042858,4.077216,4.09116,4.589924,4.618792,4.198553,4.136585,4.138092,4.183436,4.230679,4.23168,4.258319,4.187799,4.162733,4.216111,4.096331,4.525129,4.037778,4.096254,4.119622,4.020288,4.01848,4.058036,4.236935,4.161632,4.103462,4.005615,3.881114,4.04731,3.853595,4.120507,3.814395,3.841453,3.817346,3.834906,3.778733,3.82561,3.874132,3.895499,3.8154,3.749076,3.713021
3.222554,3.224371,3.227609,3.239023,3.254005,3.266099,3.281989,3.307156,3.328166,3.342038,3.363643,3.383791,3.39835,3.410847,3.424611,3.434013,3.440364,3.446196,3.446403,3.454545,3.464006,3.470438,3.473451,3.478767,3.485579,3.49444,3.507059,3.519366,3.534738,3.55125,3.567089,3.597027,3.623045,3.653919,3.678332,3.706688,3.741528,3.766514,3.794649,3.826194,3.860579,3.895043,3.922165,3.95018,3.975805,4.007091,4.035876,4.057269,4.07734,4.096025,4.110219,4.121345,4.128517,4.134346,4.139103,4.131871,4.120391,4.111724,4.100925,4.079019,4.059492,4.045159,4.019303,4.007885,3.992255,3.974717,3.955855,3.944164,3.926013,3.914607,3.904461,3.891949,3.886132,3.875937,3.868239,3.863146,3.85711,3.85194,3.848475,3.845815,3.845821,3.841604,3.836117,3.835078,3.836842,3.837617,3.840459,3.841293,3.844675,3.849887,3.853754,3.861556,3.866226,3.873682,3.881192,3.888692,3.895279,3.901566,3.906838,3.912037,3.919365,3.923809,3.927305,3.932038,3.937411,3.941977,3.947778,3.952424,3.956779,3.961472,3.966002,3.970585,3.974736,3.978923,3.985286,3.989588,3.992777,3.997629,4.002825,4.008609,4.013003,4.01599,4.020514,4.02449,4.029771,4.037044,4.043453,4.049519,4.052565,4.060386,4.065722,4.071152,4.077328,4.083603,4.086536,4.089516,4.092466,4.093673,4.094596,4.095175,4.09491,4.095962,4.096687,4.093601,4.094299,4.092078,4.089611,4.086897,4.086323,4.082589,4.079739,4.078182,4.077496,4.07709,4.077304,4.077896,4.078943,4.078812,4.078402,4.075789,4.071602,4.064025,4.053647,4.041278,4.023214,4.002329,3.978119,3.951836,3.923685,3.894695,3.867164,3.838555,3.81098,3.785745,3.760379,3.735868,3.713024,3.690714,3.669758,3.649601,3.631159,3.614055,3.597299,3.581433,3.566843,3.552206,3.538243,3.525355,3.513107,3.501803,3.491166,3.481457,3.472518,3.463819,3.455656,3.448259,3.440903,3.433776,3.427062,3.420302,3.413515,3.406683,3.399867,3.393064,3.385653,3.377992,3.369978,3.360802,3.350871,3.340554,3.329837,3.319238,3.308692,3.298495,3.288815,3.278854,3.268907,3.259106,3.24853,3.237251,3.225485,3.212746,3.199244,3.184644,3.169389,3.154133,3.137741,3.121232,3.105404,3.089126,3.073033,3.0573,3.041828,3.026926,3.011913,2.997345,2.98352,2.969318,2.95528,2.941842,2.928175,2.914838,2.901679,2.889071,2.877254,2.865644,2.854918,2.845637,2.837161,2.830224,2.825516,2.822826,2.821747,2.822493,2.825929,2.832654,2.845127,2.86349,2.889713,2.922699,2.965272,3.015768,3.070211,3.130087,3.189233,3.239695,3.282998,3.31783,3.346709,3.371165,3.392545,3.412206,3.429372,3.442566,3.454142,3.465124,3.477901,3.49549,3.517969,3.546636,3.578424,3.60992,3.641633,3.671901,3.699142,3.725439,3.75215,3.782605,3.819312,3.861119,3.909972,3.961654,4.008029,4.048793,4.081549,4.11103,4.144951,4.18524,4.235638,4.289272,4.334392,4.36752,4.379793,4.376681,4.357917,4.327498,4.279437,4.214167,4.13324,4.035322,3.924406,3.814445,3.707751,3.609767,3.519799,3.43712,3.365403,3.297962,3.235427,3.179838,3.127744,3.080071,3.0361,2.995443,2.959834,2.926671,2.895993,2.86922,2.844617,2.82248,2.802632,2.784714,2.769244,2.755022,2.741801,2.730229,2.71965,2.71047,2.702961,2.697273,2.693603,2.691804,2.69174,2.692926,2.694669,2.696025,2.695876,2.693355,2.688143,2.680197,2.670287,2.660056,2.649821,2.640387,2.632214,2.625353,2.620306,2.616643,2.614629,2.614426,2.616741,2.622227,2.632298,2.647928,2.669662,2.698666,2.737173,2.782223,2.836179,2.894755,2.958879,3.026474,3.090339,3.154323,3.216626,3.274285,3.328896,3.377472,3.420486,3.460338,3.496476,3.533955,3.573262,3.612863,3.654311,3.695293,3.738455,3.784591,3.831408,3.881579,3.933708,3.988456,4.047106,4.102959,4.154558,4.188617,4.195613,4.168757,4.127564,4.086915,4.061078,4.058834,4.073301,4.098557,4.124617,4.143981,4.153731,4.155858,4.156219,4.15777,4.160206,4.163065,4.162824,4.158265,4.147092,4.131029,4.111312,4.08953,4.063362,4.035521,4.006328,3.977774,3.953594,3.934244,3.919624,3.908602,3.899419,3.891309,3.882704,3.872251,3.860265,3.845526,3.829644,3.81251,3.794808,3.777943,3.761413,3.745491,3.729392,3.71274,3.696363,3.679382,3.662454,3.646013,3.63033,3.616593,3.603674,3.592582,3.58327,3.575339,3.568688,3.562361,3.555827,3.55005,3.544816,3.540844,3.539075,3.539829,3.5434,3.550059,3.559672,3.572485,3.588617,3.606818,3.627715,3.650788,3.674153,3.698396,3.720817,3.742016,3.76127,3.778172,3.795401,3.814296,3.839149,3.870829,3.909789,3.957847,4.012852,4.075925,4.146116,4.217506,4.291611,4.364376,4.431126,4.488111,4.52706,4.550127,4.557588,4.549118,4.525026,4.49351,4.455805,4.420662,4.392587,4.377282,4.374534,4.38623,4.410915,4.441648,4.467079,4.473125,4.446357,4.39031,4.32226,4.254867,4.199336,4.158336,4.130198,4.113403,4.102381,4.093976,4.08713,4.081456,4.080339,4.084279,4.093219,4.108201,4.129047,4.15478,4.185408,4.219768,4.26125,4.316936,4.396704,4.512371,4.663385,4.859133,5.080431,5.2948,5.466074,5.571302,5.585623,5.587917,5.597944,5.614949,5.626681,5.641973,5.654543,5.640397,5.628342,5.606595,5.583061,5.573681,5.584461,5.591683,5.574683,5.549222,5.519684,5.493787,5.460783,5.425712,5.390762,5.357336,5.325248,5.297082,5.262807,5.237387,5.205614,5.176187,5.153531,5.1149,5.096052,5.067434,5.044259,5.021596,5.000547,4.979497,4.963871,4.929552,4.898345,4.866151,4.831632,4.796181,4.764414,4.740644,4.707667,4.687936,4.662233,4.630993,4.628511,4.59988,4.635501,4.606802,4.567996,4.571221,4.551161,4.58447,4.506133,4.412586,4.392102,4.374129,4.343197,4.302331,4.321983,4.297075,4.238687,4.179159,4.152559,4.16792,4.129978,4.027011,3.991547,3.968008,3.986719,3.979101,4.017097,4.045183,4.064781,4.091538,4.152811,4.560086,4.7469,4.265274,4.294472,4.310665,4.307361,4.397622,4.548877,4.638432,4.421972,4.786858,4.541032,4.362155,5.241237,4.182662,4.371154,4.260783,4.27627,4.423573,4.331022,4.270785,4.277448,4.400599,4.354851,4.314781,4.226105,4.117002,4.115519,4.189103,4.057585,4.142262,4.17152,4.018517,4.303167,4.090329,4.388123,4.369136,4.167027,4.14085
3.059793,3.065258,3.070341,3.079456,3.088472,3.107599,3.129693,3.154989,3.166667,3.179441,3.211995,3.232332,3.243544,3.255608,3.267178,3.278731,3.289535,3.29008,3.288447,3.290562,3.299828,3.308711,3.315909,3.323767,3.332104,3.341492,3.353742,3.366586,3.377418,3.39006,3.409451,3.444564,3.46487,3.495722,3.525329,3.550309,3.573554,3.595183,3.627583,3.662169,3.688509,3.709505,3.730464,3.756354,3.780293,3.805957,3.828182,3.842841,3.85581,3.866602,3.874124,3.872363,3.866037,3.861791,3.86305,3.857193,3.831798,3.815985,3.806263,3.793303,3.77005,3.746643,3.732146,3.717109,3.695342,3.683167,3.667144,3.657916,3.640448,3.627525,3.619663,3.610454,3.601099,3.593185,3.587197,3.585866,3.578417,3.57183,3.568148,3.564997,3.558247,3.557247,3.555977,3.554428,3.552437,3.55512,3.5552,3.55328,3.556438,3.559162,3.564324,3.570294,3.574513,3.578021,3.584727,3.591022,3.596543,3.601797,3.606781,3.611821,3.617102,3.621492,3.62622,3.63097,3.635837,3.639983,3.645139,3.648862,3.652027,3.655988,3.659118,3.662981,3.667926,3.673734,3.679029,3.682072,3.684578,3.68863,3.693711,3.698533,3.702571,3.708014,3.713151,3.715032,3.718162,3.72431,3.728518,3.732926,3.735498,3.741136,3.745975,3.750087,3.755139,3.756507,3.760071,3.763031,3.763779,3.763658,3.76486,3.763975,3.76435,3.765226,3.763632,3.764048,3.764244,3.763865,3.7625,3.76103,3.761597,3.760662,3.760367,3.758734,3.759501,3.760411,3.759989,3.761597,3.763212,3.764683,3.76511,3.765078,3.764424,3.760962,3.755017,3.746424,3.73264,3.714993,3.693553,3.668836,3.641789,3.613712,3.586447,3.558378,3.531432,3.506723,3.481961,3.458154,3.435877,3.414415,3.394331,3.375168,3.357769,3.342106,3.32675,3.312369,3.299314,3.286363,3.274056,3.262722,3.251969,3.242141,3.232983,3.224761,3.217304,3.210219,3.203541,3.19773,3.191915,3.186514,3.18158,3.176688,3.172067,3.167488,3.163063,3.158761,3.154077,3.148998,3.143433,3.136681,3.129019,3.120776,3.111939,3.103072,3.094332,3.085997,3.078316,3.070565,3.063018,3.055649,3.047619,3.038896,3.029503,3.019022,3.00763,2.99501,2.981656,2.968218,2.95366,2.939003,2.924881,2.910304,2.895864,2.881749,2.867853,2.854476,2.841075,2.828057,2.815782,2.803128,2.79058,2.778535,2.766221,2.754095,2.742087,2.73052,2.719647,2.708912,2.69898,2.690374,2.682377,2.675684,2.670355,2.66752,2.665995,2.665945,2.668102,2.672936,2.682515,2.696795,2.717369,2.743465,2.777373,2.817763,2.861392,2.909433,2.957361,2.999341,3.036898,3.068928,3.097327,3.123262,3.147011,3.169895,3.190645,3.207648,3.223221,3.238118,3.254551,3.276189,3.303298,3.337639,3.376163,3.415041,3.454951,3.492934,3.526844,3.558939,3.590586,3.625604,3.667219,3.714104,3.768111,3.824439,3.874976,3.9188,3.952471,3.981132,4.011074,4.046596,4.093153,4.145371,4.195276,4.240154,4.271949,4.29265,4.2972,4.289093,4.259091,4.208334,4.135196,4.041038,3.928358,3.814461,3.702852,3.599628,3.50431,3.416456,3.34003,3.268274,3.201666,3.142301,3.086535,3.035167,2.987813,2.943707,2.905002,2.868825,2.835259,2.805847,2.778596,2.753969,2.731715,2.711463,2.693805,2.677438,2.662205,2.648815,2.636439,2.625415,2.615923,2.608021,2.602019,2.597534,2.594388,2.592436,2.591054,2.589592,2.587165,2.582914,2.576828,2.568791,2.559257,2.549603,2.539943,2.530896,2.522926,2.516086,2.51089,2.50693,2.504375,2.503411,2.504573,2.508428,2.51609,2.528346,2.545555,2.568841,2.600039,2.636763,2.681114,2.729563,2.783191,2.840529,2.896066,2.953141,3.011192,3.067085,3.122364,3.172987,3.218753,3.260643,3.297247,3.333869,3.371873,3.411296,3.454321,3.498843,3.546934,3.598403,3.649986,3.704176,3.759531,3.818183,3.883058,3.948405,4.014786,4.064813,4.086086,4.063737,4.020498,3.972895,3.939198,3.930126,3.940516,3.96451,3.993449,4.019193,4.036975,4.049274,4.055407,4.059872,4.064094,4.066978,4.067586,4.064048,4.055333,4.042654,4.026036,4.007115,3.984577,3.95957,3.931998,3.904316,3.880825,3.861121,3.845447,3.834471,3.824454,3.816588,3.808532,3.799601,3.789213,3.776851,3.763053,3.747608,3.731255,3.715388,3.699361,3.684193,3.668308,3.651875,3.635621,3.618515,3.600924,3.583513,3.566599,3.551215,3.5366,3.523189,3.51149,3.5011,3.492028,3.483651,3.475043,3.467558,3.460881,3.455896,3.452926,3.452698,3.45508,3.459901,3.467988,3.478534,3.491857,3.507045,3.52436,3.543749,3.564021,3.584717,3.604838,3.623513,3.640207,3.653779,3.666731,3.680373,3.69859,3.722863,3.753353,3.791887,3.836532,3.887154,3.943834,4.00047,4.060571,4.11872,4.171421,4.216473,4.245173,4.265052,4.269087,4.261619,4.24227,4.216943,4.187134,4.158086,4.136945,4.125423,4.124842,4.136858,4.158549,4.186486,4.210008,4.217999,4.199069,4.156632,4.103564,4.048951,4.003945,3.969976,3.945857,3.93057,3.919637,3.910043,3.901692,3.894854,3.890242,3.889904,3.894399,3.903355,3.916498,3.934819,3.957027,3.980803,4.014065,4.061519,4.130627,4.232613,4.367411,4.54278,4.752074,4.960628,5.134804,5.250503,5.287275,5.30412,5.328679,5.363316,5.414167,5.464752,5.476608,5.47201,5.471463,5.457358,5.476011,5.499294,5.527346,5.5253,5.503508,5.470323,5.43749,5.40368,5.374632,5.344735,5.305687,5.274724,5.244446,5.212125,5.175717,5.149484,5.117464,5.089632,5.066097,5.037209,5.017583,5.000673,4.977234,4.961735,4.949075,4.930353,4.92058,4.905059,4.86695,4.835958,4.793063,4.752721,4.737041,4.714551,4.681682,4.639848,4.634519,4.606014,4.612684,4.593215,4.607409,4.601871,4.576412,4.557132,4.523877,4.545364,4.462937,4.41848,4.384888,4.356124,4.31424,4.30491,4.242149,4.251551,4.205309,4.160668,4.105389,4.12269,4.075223,4.010925,3.978705,3.970369,3.970827,3.968631,4.008053,4.0094,4.029571,4.02163,4.086159,4.257208,4.4376,4.076785,4.091277,4.137561,4.167386,4.157517,4.201386,4.310718,4.258247,4.237309,4.217541,4.310736,4.667062,4.133098,4.097548,4.066377,4.170746,4.175426,4.019008,4.093326,4.101775,4.220072,4.043376,3.968195,4.268693,3.916854,4.70914,3.841541,4.093899,3.889183,3.806699,3.905659,4.109891,3.795197,3.820152,3.830054,3.803865,3.909338
3.06956,3.073791,3.077777,3.087898,3.103931,3.124173,3.146161,3.162809,3.179504,3.211393,3.228764,3.241262,3.254536,3.268997,3.276376,3.287954,3.29817,3.30835,3.316858,3.31976,3.316173,3.319018,3.327121,3.337008,3.347001,3.355317,3.367141,3.378256,3.390113,3.415702,3.444858,3.460962,3.496228,3.522513,3.547915,3.572772,3.604558,3.642473,3.67312,3.696887,3.727556,3.763758,3.791229,3.823721,3.863867,3.89765,3.91805,3.938407,3.954478,3.972054,3.98336,3.993857,4.003945,4.008157,4.008147,3.994692,3.973577,3.962296,3.937069,3.928667,3.912598,3.884492,3.872597,3.860545,3.846643,3.827101,3.800983,3.792424,3.780323,3.762409,3.752824,3.744456,3.739091,3.729836,3.726486,3.713799,3.709354,3.706416,3.701498,3.697328,3.694088,3.695044,3.695504,3.690897,3.688225,3.689174,3.693609,3.6942,3.695582,3.69927,3.705302,3.714259,3.717573,3.720903,3.724028,3.729981,3.735948,3.741395,3.746635,3.751466,3.758754,3.762077,3.764462,3.76946,3.774312,3.779026,3.783761,3.788536,3.793437,3.798595,3.802895,3.806702,3.810527,3.813497,3.818638,3.820928,3.823428,3.82823,3.833382,3.838916,3.843485,3.848593,3.85378,3.856752,3.859853,3.864399,3.871786,3.875575,3.875883,3.88204,3.887661,3.89073,3.895171,3.899436,3.900971,3.900955,3.903963,3.903797,3.902943,3.902394,3.904323,3.902461,3.90266,3.90149,3.900442,3.899272,3.898776,3.897922,3.895131,3.893555,3.892271,3.891787,3.890563,3.890863,3.88922,3.889374,3.889405,3.889992,3.89027,3.89009,3.888259,3.885085,3.879191,3.870776,3.857562,3.841145,3.820004,3.79636,3.76934,3.740978,3.713267,3.684691,3.657132,3.631524,3.605982,3.581345,3.558428,3.535954,3.514868,3.494742,3.476277,3.459298,3.442652,3.426964,3.412651,3.398139,3.384431,3.371651,3.359386,3.34804,3.337192,3.327298,3.318109,3.309355,3.300899,3.293344,3.285861,3.278788,3.272159,3.265777,3.259632,3.253583,3.247885,3.242282,3.236261,3.229875,3.223116,3.215042,3.206021,3.196471,3.186355,3.176222,3.16625,3.156738,3.147959,3.139173,3.130581,3.12225,3.113251,3.103535,3.093128,3.081704,3.069368,3.055862,3.041667,3.027437,3.012056,2.996547,2.981714,2.966349,2.951069,2.936055,2.921291,2.907008,2.892681,2.87877,2.865526,2.851861,2.838275,2.825151,2.811754,2.798512,2.785345,2.772629,2.760568,2.748566,2.737299,2.727335,2.717884,2.709635,2.702073,2.697624,2.694283,2.692233,2.692222,2.694415,2.700603,2.711243,2.727565,2.748815,2.7769,2.810596,2.84704,2.887289,2.927557,2.963494,2.996312,3.025109,3.051385,3.075953,3.098928,3.121366,3.14194,3.158895,3.17448,3.18949,3.205945,3.227788,3.255087,3.289922,3.329523,3.369577,3.410953,3.45024,3.484954,3.517467,3.549438,3.584757,3.626673,3.673702,3.727936,3.784137,3.834012,3.877212,3.909584,3.93588,3.963783,3.996955,4.04137,4.092321,4.142591,4.190371,4.22893,4.25652,4.269145,4.268772,4.247368,4.201513,4.132439,4.040449,3.928908,3.815248,3.703468,3.59998,3.504344,3.416124,3.339253,3.267118,3.200177,3.140435,3.084287,3.032496,2.984627,2.94008,2.900838,2.864184,2.830089,2.800171,2.772376,2.747184,2.724313,2.703401,2.685049,2.667998,2.65203,2.637964,2.624896,2.613172,2.602931,2.594205,2.58731,2.581857,2.577661,2.574577,2.572013,2.569443,2.566085,2.561194,2.554841,2.546913,2.537664,2.528304,2.518935,2.510143,2.502309,2.495477,2.490214,2.486104,2.483285,2.481951,2.482566,2.485583,2.492095,2.502737,2.517915,2.538416,2.566095,2.598832,2.638516,2.682059,2.730584,2.782865,2.834056,2.887476,2.942661,2.996766,3.051091,3.101449,3.147379,3.189322,3.225527,3.261339,3.298105,3.336689,3.379648,3.424586,3.473567,3.526047,3.578152,3.632351,3.687401,3.745588,3.810137,3.876278,3.943747,3.999316,4.022682,4.004922,3.96296,3.914614,3.879801,3.869752,3.879029,3.903312,3.933175,3.962344,3.984138,4.000961,4.007903,4.013754,4.018668,4.02245,4.023862,4.021914,4.015159,4.004504,3.990721,3.973563,3.952012,3.928431,3.901676,3.875031,3.851585,3.832147,3.81693,3.805955,3.796334,3.788673,3.780824,3.772712,3.763314,3.751803,3.739098,3.724176,3.708579,3.693446,3.677793,3.662614,3.647358,3.631289,3.615384,3.598278,3.580814,3.563451,3.54614,3.53033,3.515566,3.501152,3.48899,3.477625,3.467646,3.458493,3.44901,3.441006,3.434057,3.428451,3.424994,3.423918,3.425658,3.429635,3.436873,3.446133,3.458213,3.471657,3.487299,3.505033,3.523204,3.54282,3.561399,3.579029,3.594514,3.606857,3.618248,3.630027,3.645453,3.666507,3.693518,3.727849,3.767266,3.81254,3.862627,3.913568,3.966893,4.016623,4.062311,4.100877,4.126352,4.141447,4.143843,4.136554,4.119214,4.096392,4.068484,4.043616,4.023839,4.014368,4.014244,4.025169,4.045718,4.070702,4.093164,4.101053,4.086699,4.050766,4.00387,3.956385,3.915686,3.884197,3.861345,3.846931,3.835212,3.82604,3.816977,3.809107,3.804065,3.802255,3.803592,3.809856,3.819618,3.834158,3.852027,3.872489,3.901813,3.944599,4.006118,4.100261,4.224972,4.388628,4.583973,4.782836,4.959139,5.066674,5.091305,5.098416,5.141087,5.194395,5.283804,5.335886,5.366398,5.39953,5.398068,5.389111,5.394463,5.411951,5.441402,5.482729,5.484156,5.461165,5.431942,5.398188,5.364676,5.324934,5.294464,5.26856,5.243204,5.208708,5.184338,5.143247,5.119585,5.10068,5.056886,5.035302,5.030331,4.994395,4.971613,4.965953,4.960283,4.948061,4.927013,4.897204,4.864667,4.824944,4.803849,4.772794,4.736891,4.705466,4.66673,4.656374,4.624229,4.601235,4.596501,4.580596,4.57968,4.568878,4.534867,4.536474,4.510313,4.525627,4.462382,4.40065,4.345609,4.326669,4.292192,4.272095,4.265859,4.210318,4.175775,4.134498,4.095135,4.117922,4.086934,3.986503,3.981812,3.943114,3.945388,3.957139,3.995113,4.004614,4.019446,4.025213,4.039232,4.177568,4.280008,4.111634,4.070005,4.101205,4.18343,4.122071,4.203938,4.299132,4.169346,4.316576,4.411746,4.073294,4.866754,3.960454,4.044657,4.168215,4.026942,3.993005,3.961948,4.020408,3.893045,4.059483,3.921565,3.972152,3.885984,3.949259,3.940488,4.000666,3.997273,3.771087,3.736171,3.888231,3.878128,3.899338,3.942943,3.853966,3.894206,3.961594
